         ID: 

    Comment: 

Scan Type: Normal
Start Angle: 36 deg.
Stop Angle: 46 deg.
Num Points: 501
Step Size: 0.02 deg.
Datafile Res: 1600 
Scan Rate: 10.000000
Scan Mode: Continuous
Wavelength: 1.540562

Diffractometer Optics:
		Detector:
			 Type: Fixed Slits
			 X2 Configuration: No
		Tube: 
			 Type: Fixed Slits
			 X2 Configuration: No


Axis[0]
	 Selected   : no 
	 Iterative  : no 
	 Start Angle: 0.000000 
	 Stop Angle : 0.000000 
	 Step Size  : 0.000000 
	 Oscillating: no 

Axis[1]
	 Selected   : no 
	 Iterative  : no 
	 Start Angle: 0.000000 
	 Stop Angle : 0.000000 
	 Step Size  : 0.000000 
	 Oscillating: no 

Axis[2]
	 Selected   : no 
	 Iterative  : no 
	 Start Angle: 0.000000 
	 Stop Angle : 0.000000 
	 Step Size  : 0.000000 
	 Oscillating: no 

Axis[3]
	 Selected   : no 
	 Iterative  : no 
	 Start Angle: 0.000000 
	 Stop Angle : 0.000000 
	 Step Size  : 0.000000 
	 Oscillating: no 

Axis[4]
	 Selected   : no 
	 Iterative  : no 
	 Start Angle: 0.000000 
	 Stop Angle : 0.000000 
	 Step Size  : 0.000000 
	 Oscillating: no 

Axis[5]
	 Selected   : no 
	 Iterative  : no 
	 Start Angle: 0.000000 
	 Stop Angle : 0.000000 
	 Step Size  : 0.000000 
	 Oscillating: no 

Axis[6]
	 Selected   : no 
	 Iterative  : no 
	 Start Angle: 0.000000 
	 Stop Angle : 0.000000 
	 Step Size  : 0.000000 
	 Oscillating: no 

Axis[7]
	 Selected   : no 
	 Iterative  : no 
	 Start Angle: 0.000000 
	 Stop Angle : 0.000000 
	 Step Size  : 0.000000 
	 Oscillating: no 

Axis[8]
	 Selected   : no 
	 Iterative  : no 
	 Start Angle: 0.000000 
	 Stop Angle : 0.000000 
	 Step Size  : 0.000000 
	 Oscillating: no 

Axis[9]
	 Selected   : no 
	 Iterative  : no 
	 Start Angle: 0.000000 
	 Stop Angle : 0.000000 
	 Step Size  : 0.000000 
	 Oscillating: no 




	   Deg.      CPS  	    ESD   

Range 0
  36.000	    583.33	    69.722
  36.020	    575.00	    69.222
  36.040	    508.33	    65.085
  36.060	    500.00	    64.550
  36.080	    408.33	    58.333
  36.100	    458.33	    61.802
  36.120	    466.67	    62.361
  36.140	    575.00	    69.222
  36.160	    583.33	    69.722
  36.180	    408.33	    58.333
  36.200	    466.67	    62.361
  36.220	    525.00	    66.144
  36.240	    516.67	    65.617
  36.260	    425.00	    59.512
  36.280	    516.67	    65.617
  36.300	    658.33	    74.068
  36.320	    566.67	    68.718
  36.340	    516.67	    65.617
  36.360	    508.33	    65.085
  36.380	    500.00	    64.550
  36.400	    475.00	    62.915
  36.420	    758.33	    79.495
  36.440	    500.00	    64.550
  36.460	    550.00	    67.700
  36.480	    483.33	    63.465
  36.500	    416.67	    58.926
  36.520	    508.33	    65.085
  36.540	    391.67	    57.130
  36.560	    741.67	    78.617
  36.580	    533.33	    66.667
  36.600	    608.33	    71.200
  36.620	    683.33	    75.462
  36.640	    666.67	    74.536
  36.660	    741.67	    78.617
  36.680	    725.00	    77.728
  36.700	    750.00	    79.057
  36.720	    850.00	    84.163
  36.740	    891.67	    86.201
  36.760	    858.33	    84.574
  36.780	    858.33	    84.574
  36.800	    558.33	    68.211
  36.820	    750.00	    79.057
  36.840	    725.00	    77.728
  36.860	    666.67	    74.536
  36.880	    475.00	    62.915
  36.900	    641.67	    73.125
  36.920	    650.00	    73.598
  36.940	    591.67	    70.218
  36.960	    625.00	    72.169
  36.980	    566.67	    68.718
  37.000	    550.00	    67.700
  37.020	    675.00	    75.000
  37.040	    600.00	    70.711
  37.060	    441.67	    60.668
  37.080	    491.67	    64.010
  37.100	    483.33	    63.465
  37.120	    566.67	    68.718
  37.140	    575.00	    69.222
  37.160	    533.33	    66.667
  37.180	    458.33	    61.802
  37.200	    591.67	    70.218
  37.220	    600.00	    70.711
  37.240	    600.00	    70.711
  37.260	    566.67	    68.718
  37.280	    433.33	    60.093
  37.300	    500.00	    64.550
  37.320	    475.00	    62.915
  37.340	    558.33	    68.211
  37.360	    575.00	    69.222
  37.380	    508.33	    65.085
  37.400	    566.67	    68.718
  37.420	    591.67	    70.218
  37.440	    483.33	    63.465
  37.460	    566.67	    68.718
  37.480	    458.33	    61.802
  37.500	    616.67	    71.686
  37.520	    583.33	    69.722
  37.540	    550.00	    67.700
  37.560	    500.00	    64.550
  37.580	    666.67	    74.536
  37.600	    616.67	    71.686
  37.620	    500.00	    64.550
  37.640	    525.00	    66.144
  37.660	    575.00	    69.222
  37.680	    625.00	    72.169
  37.700	    466.67	    62.361
  37.720	    458.33	    61.802
  37.740	    808.33	    82.074
  37.760	    591.67	    70.218
  37.780	    575.00	    69.222
  37.800	    666.67	    74.536
  37.820	    600.00	    70.711
  37.840	    675.00	    75.000
  37.860	    500.00	    64.550
  37.880	    650.00	    73.598
  37.900	    666.67	    74.536
  37.920	    841.67	    83.749
  37.940	    683.33	    75.462
  37.960	    733.33	    78.174
  37.980	    750.00	    79.057
  38.000	    866.67	    84.984
  38.020	    875.00	    85.391
  38.040	    983.33	    90.523
  38.060	   1091.67	    95.379
  38.080	   1058.33	    93.912
  38.100	   1225.00	   101.036
  38.120	   1508.33	   112.114
  38.140	   1783.33	   121.906
  38.160	   2083.33	   131.762
  38.180	   2241.67	   136.677
  38.200	   2533.33	   145.297
  38.220	   3058.33	   159.644
  38.240	   4025.00	   183.144
  38.260	   4800.00	   200.000
  38.280	   5866.67	   221.108
  38.300	   7283.33	   246.362
  38.320	   8850.00	   271.570
  38.340	  10291.67	   292.855
  38.360	  13266.67	   332.499
  38.380	  14091.67	   342.681
  38.400	  14850.00	   351.781
  38.420	  15491.67	   359.301
  38.440	  14508.33	   347.711
  38.460	  13383.33	   333.958
  38.480	  11558.33	   310.354
  38.500	   9825.00	   286.138
  38.520	   7991.67	   258.064
  38.540	   6883.33	   239.502
  38.560	   5841.67	   220.637
  38.580	   3983.33	   182.193
  38.600	   3458.33	   169.763
  38.620	   2508.33	   144.578
  38.640	   2008.33	   129.368
  38.660	   1700.00	   119.024
  38.680	   1633.33	   116.667
  38.700	   1408.33	   108.333
  38.720	   1266.67	   102.740
  38.740	   1158.33	    98.249
  38.760	   1116.67	    96.465
  38.780	    933.33	    88.192
  38.800	   1050.00	    93.541
  38.820	    825.00	    82.916
  38.840	   1000.00	    91.287
  38.860	    883.33	    85.797
  38.880	    858.33	    84.574
  38.900	    733.33	    78.174
  38.920	    716.67	    77.280
  38.940	    816.67	    82.496
  38.960	    808.33	    82.074
  38.980	    741.67	    78.617
  39.000	    625.00	    72.169
  39.020	    791.67	    81.223
  39.040	    625.00	    72.169
  39.060	    666.67	    74.536
  39.080	    516.67	    65.617
  39.100	    641.67	    73.125
  39.120	    608.33	    71.200
  39.140	    600.00	    70.711
  39.160	    566.67	    68.718
  39.180	    633.33	    72.648
  39.200	    575.00	    69.222
  39.220	    566.67	    68.718
  39.240	    466.67	    62.361
  39.260	    466.67	    62.361
  39.280	    616.67	    71.686
  39.300	    466.67	    62.361
  39.320	    616.67	    71.686
  39.340	    466.67	    62.361
  39.360	    500.00	    64.550
  39.380	    483.33	    63.465
  39.400	    466.67	    62.361
  39.420	    508.33	    65.085
  39.440	    558.33	    68.211
  39.460	    458.33	    61.802
  39.480	    700.00	    76.376
  39.500	    600.00	    70.711
  39.520	    475.00	    62.915
  39.540	    641.67	    73.125
  39.560	    483.33	    63.465
  39.580	    541.67	    67.185
  39.600	    641.67	    73.125
  39.620	    625.00	    72.169
  39.640	    533.33	    66.667
  39.660	    758.33	    79.495
  39.680	    725.00	    77.728
  39.700	    625.00	    72.169
  39.720	    700.00	    76.376
  39.740	    841.67	    83.749
  39.760	    816.67	    82.496
  39.780	   1025.00	    92.421
  39.800	    833.33	    83.333
  39.820	    933.33	    88.192
  39.840	   1083.33	    95.015
  39.860	   1041.67	    93.169
  39.880	   1358.33	   106.393
  39.900	   1233.33	   101.379
  39.920	   1483.33	   111.181
  39.940	   1600.00	   115.470
  39.960	   1983.33	   128.560
  39.980	   2375.00	   140.683
  40.000	   2883.33	   155.009
  40.020	   3191.67	   163.087
  40.040	   3800.00	   177.951
  40.060	   4608.33	   195.966
  40.080	   4908.33	   202.244
  40.100	   5383.33	   211.804
  40.120	   5516.67	   214.411
  40.140	   5400.00	   212.132
  40.160	   4575.00	   195.256
  40.180	   4183.33	   186.711
  40.200	   3441.67	   169.353
  40.220	   2775.00	   152.069
  40.240	   2150.00	   133.853
  40.260	   2108.33	   132.550
  40.280	   1675.00	   118.145
  40.300	   1375.00	   107.044
  40.320	   1416.67	   108.653
  40.340	   1066.67	    94.281
  40.360	   1091.67	    95.379
  40.380	   1008.33	    91.667
  40.400	    900.00	    86.603
  40.420	    808.33	    82.074
  40.440	    841.67	    83.749
  40.460	    850.00	    84.163
  40.480	    691.67	    75.920
  40.500	    875.00	    85.391
  40.520	    783.33	    80.795
  40.540	    716.67	    77.280
  40.560	    683.33	    75.462
  40.580	    741.67	    78.617
  40.600	    791.67	    81.223
  40.620	    775.00	    80.364
  40.640	    708.33	    76.830
  40.660	    583.33	    69.722
  40.680	    641.67	    73.125
  40.700	    775.00	    80.364
  40.720	    775.00	    80.364
  40.740	    741.67	    78.617
  40.760	    558.33	    68.211
  40.780	    583.33	    69.722
  40.800	    758.33	    79.495
  40.820	    833.33	    83.333
  40.840	    725.00	    77.728
  40.860	    691.67	    75.920
  40.880	    658.33	    74.068
  40.900	    741.67	    78.617
  40.920	    741.67	    78.617
  40.940	    833.33	    83.333
  40.960	    666.67	    74.536
  40.980	    675.00	    75.000
  41.000	    691.67	    75.920
  41.020	    666.67	    74.536
  41.040	    591.67	    70.218
  41.060	    533.33	    66.667
  41.080	    725.00	    77.728
  41.100	    691.67	    75.920
  41.120	    608.33	    71.200
  41.140	    600.00	    70.711
  41.160	    550.00	    67.700
  41.180	    691.67	    75.920
  41.200	    608.33	    71.200
  41.220	    533.33	    66.667
  41.240	    616.67	    71.686
  41.260	    575.00	    69.222
  41.280	    650.00	    73.598
  41.300	    533.33	    66.667
  41.320	    600.00	    70.711
  41.340	    533.33	    66.667
  41.360	    500.00	    64.550
  41.380	    525.00	    66.144
  41.400	    666.67	    74.536
  41.420	    658.33	    74.068
  41.440	    533.33	    66.667
  41.460	    675.00	    75.000
  41.480	    566.67	    68.718
  41.500	    558.33	    68.211
  41.520	    583.33	    69.722
  41.540	    583.33	    69.722
  41.560	    550.00	    67.700
  41.580	    566.67	    68.718
  41.600	    616.67	    71.686
  41.620	    566.67	    68.718
  41.640	    533.33	    66.667
  41.660	    541.67	    67.185
  41.680	    633.33	    72.648
  41.700	    541.67	    67.185
  41.720	    583.33	    69.722
  41.740	    625.00	    72.169
  41.760	    525.00	    66.144
  41.780	    550.00	    67.700
  41.800	    366.67	    55.277
  41.820	    650.00	    73.598
  41.840	    533.33	    66.667
  41.860	    516.67	    65.617
  41.880	    508.33	    65.085
  41.900	    550.00	    67.700
  41.920	    500.00	    64.550
  41.940	    466.67	    62.361
  41.960	    625.00	    72.169
  41.980	    541.67	    67.185
  42.000	    500.00	    64.550
  42.020	    525.00	    66.144
  42.040	    625.00	    72.169
  42.060	    533.33	    66.667
  42.080	    625.00	    72.169
  42.100	    500.00	    64.550
  42.120	    583.33	    69.722
  42.140	    558.33	    68.211
  42.160	    575.00	    69.222
  42.180	    616.67	    71.686
  42.200	    475.00	    62.915
  42.220	    491.67	    64.010
  42.240	    575.00	    69.222
  42.260	    475.00	    62.915
  42.280	    483.33	    63.465
  42.300	    575.00	    69.222
  42.320	    558.33	    68.211
  42.340	    600.00	    70.711
  42.360	    516.67	    65.617
  42.380	    491.67	    64.010
  42.400	    550.00	    67.700
  42.420	    558.33	    68.211
  42.440	    641.67	    73.125
  42.460	    633.33	    72.648
  42.480	    525.00	    66.144
  42.500	    533.33	    66.667
  42.520	    675.00	    75.000
  42.540	    691.67	    75.920
  42.560	    866.67	    84.984
  42.580	    608.33	    71.200
  42.600	    725.00	    77.728
  42.620	    791.67	    81.223
  42.640	    891.67	    86.201
  42.660	    725.00	    77.728
  42.680	    883.33	    85.797
  42.700	    816.67	    82.496
  42.720	    683.33	    75.462
  42.740	    775.00	    80.364
  42.760	    700.00	    76.376
  42.780	    700.00	    76.376
  42.800	    683.33	    75.462
  42.820	    775.00	    80.364
  42.840	    733.33	    78.174
  42.860	    716.67	    77.280
  42.880	    691.67	    75.920
  42.900	    750.00	    79.057
  42.920	    616.67	    71.686
  42.940	    633.33	    72.648
  42.960	    733.33	    78.174
  42.980	    683.33	    75.462
  43.000	    683.33	    75.462
  43.020	    525.00	    66.144
  43.040	    575.00	    69.222
  43.060	    583.33	    69.722
  43.080	    616.67	    71.686
  43.100	    591.67	    70.218
  43.120	    716.67	    77.280
  43.140	    666.67	    74.536
  43.160	    600.00	    70.711
  43.180	    483.33	    63.465
  43.200	    591.67	    70.218
  43.220	    533.33	    66.667
  43.240	    650.00	    73.598
  43.260	    616.67	    71.686
  43.280	    408.33	    58.333
  43.300	    550.00	    67.700
  43.320	    525.00	    66.144
  43.340	    741.67	    78.617
  43.360	    550.00	    67.700
  43.380	    575.00	    69.222
  43.400	    575.00	    69.222
  43.420	    541.67	    67.185
  43.440	    666.67	    74.536
  43.460	    566.67	    68.718
  43.480	    516.67	    65.617
  43.500	    666.67	    74.536
  43.520	    616.67	    71.686
  43.540	    483.33	    63.465
  43.560	    600.00	    70.711
  43.580	    541.67	    67.185
  43.600	    575.00	    69.222
  43.620	    566.67	    68.718
  43.640	    500.00	    64.550
  43.660	    600.00	    70.711
  43.680	    600.00	    70.711
  43.700	    625.00	    72.169
  43.720	    425.00	    59.512
  43.740	    641.67	    73.125
  43.760	    558.33	    68.211
  43.780	    616.67	    71.686
  43.800	    483.33	    63.465
  43.820	    583.33	    69.722
  43.840	    708.33	    76.830
  43.860	    533.33	    66.667
  43.880	    675.00	    75.000
  43.900	    608.33	    71.200
  43.920	    825.00	    82.916
  43.940	    800.00	    81.650
  43.960	    708.33	    76.830
  43.980	    925.00	    87.797
  44.000	    625.00	    72.169
  44.020	    841.67	    83.749
  44.040	    950.00	    88.976
  44.060	    800.00	    81.650
  44.080	    983.33	    90.523
  44.100	    850.00	    84.163
  44.120	    933.33	    88.192
  44.140	   1008.33	    91.667
  44.160	   1025.00	    92.421
  44.180	   1241.67	   101.721
  44.200	   1183.33	    99.303
  44.220	   1108.33	    96.105
  44.240	   1241.67	   101.721
  44.260	   1491.67	   111.492
  44.280	   1691.67	   118.732
  44.300	   1733.33	   120.185
  44.320	   1866.67	   124.722
  44.340	   2258.33	   137.184
  44.360	   2466.67	   143.372
  44.380	   2941.67	   156.569
  44.400	   3300.00	   165.831
  44.420	   3816.67	   178.341
  44.440	   4425.00	   192.029
  44.460	   5666.67	   217.307
  44.480	   7141.67	   243.955
  44.500	   8125.00	   260.208
  44.520	   9733.33	   284.800
  44.540	  11783.33	   313.360
  44.560	  13291.67	   332.812
  44.580	  14016.67	   341.768
  44.600	  16166.67	   367.045
  44.620	  16608.33	   372.025
  44.640	  16325.00	   368.838
  44.660	  15441.67	   358.721
  44.680	  15391.67	   358.139
  44.700	  14508.33	   347.711
  44.720	  13000.00	   329.140
  44.740	  11741.67	   312.805
  44.760	  10641.67	   297.793
  44.780	   8175.00	   261.008
  44.800	   7041.67	   242.241
  44.820	   6125.00	   225.924
  44.840	   4783.33	   199.652
  44.860	   4166.67	   186.339
  44.880	   3283.33	   165.412
  44.900	   2775.00	   152.069
  44.920	   2225.00	   136.168
  44.940	   1850.00	   124.164
  44.960	   2008.33	   129.368
  44.980	   1716.67	   119.606
  45.000	   1400.00	   108.012
  45.020	   1275.00	   103.078
  45.040	   1208.33	   100.347
  45.060	   1066.67	    94.281
  45.080	   1050.00	    93.541
  45.100	   1150.00	    97.895
  45.120	   1050.00	    93.541
  45.140	    991.67	    90.906
  45.160	    958.33	    89.365
  45.180	    833.33	    83.333
  45.200	    916.67	    87.401
  45.220	    841.67	    83.749
  45.240	    825.00	    82.916
  45.260	    908.33	    87.003
  45.280	    783.33	    80.795
  45.300	    758.33	    79.495
  45.320	    733.33	    78.174
  45.340	    691.67	    75.920
  45.360	    700.00	    76.376
  45.380	    850.00	    84.163
  45.400	    691.67	    75.920
  45.420	    625.00	    72.169
  45.440	    641.67	    73.125
  45.460	    741.67	    78.617
  45.480	    533.33	    66.667
  45.500	    808.33	    82.074
  45.520	    633.33	    72.648
  45.540	    600.00	    70.711
  45.560	    633.33	    72.648
  45.580	    741.67	    78.617
  45.600	    658.33	    74.068
  45.620	    533.33	    66.667
  45.640	    591.67	    70.218
  45.660	    550.00	    67.700
  45.680	    433.33	    60.093
  45.700	    541.67	    67.185
  45.720	    725.00	    77.728
  45.740	    558.33	    68.211
  45.760	    491.67	    64.010
  45.780	    600.00	    70.711
  45.800	    491.67	    64.010
  45.820	    533.33	    66.667
  45.840	    525.00	    66.144
  45.860	    533.33	    66.667
  45.880	    600.00	    70.711
  45.900	    550.00	    67.700
  45.920	    591.67	    70.218
  45.940	    641.67	    73.125
  45.960	    541.67	    67.185
  45.980	    491.67	    64.010
  46.000	    575.00	    69.222
