         ID: 

    Comment: 

Scan Type: Normal
Start Angle: 5 deg.
Stop Angle: 100 deg.
Num Points: 4751
Step Size: 0.02 deg.
Datafile Res: 1600 
Scan Rate: 10.000000
Scan Mode: Continuous
Wavelength: 1.540562

Diffractometer Optics:
		Detector:
			 Type: Fixed Slits
			 X2 Configuration: No
		Tube: 
			 Type: Fixed Slits
			 X2 Configuration: No


Axis[0]
	 Selected   : no 
	 Iterative  : no 
	 Start Angle: 0.000000 
	 Stop Angle : 0.000000 
	 Step Size  : 0.000000 
	 Oscillating: no 

Axis[1]
	 Selected   : no 
	 Iterative  : no 
	 Start Angle: 0.000000 
	 Stop Angle : 0.000000 
	 Step Size  : 0.000000 
	 Oscillating: no 

Axis[2]
	 Selected   : no 
	 Iterative  : no 
	 Start Angle: 0.000000 
	 Stop Angle : 0.000000 
	 Step Size  : 0.000000 
	 Oscillating: no 

Axis[3]
	 Selected   : no 
	 Iterative  : no 
	 Start Angle: 0.000000 
	 Stop Angle : 0.000000 
	 Step Size  : 0.000000 
	 Oscillating: no 

Axis[4]
	 Selected   : no 
	 Iterative  : no 
	 Start Angle: 0.000000 
	 Stop Angle : 0.000000 
	 Step Size  : 0.000000 
	 Oscillating: no 

Axis[5]
	 Selected   : no 
	 Iterative  : no 
	 Start Angle: 0.000000 
	 Stop Angle : 0.000000 
	 Step Size  : 0.000000 
	 Oscillating: no 

Axis[6]
	 Selected   : no 
	 Iterative  : no 
	 Start Angle: 0.000000 
	 Stop Angle : 0.000000 
	 Step Size  : 0.000000 
	 Oscillating: no 

Axis[7]
	 Selected   : no 
	 Iterative  : no 
	 Start Angle: 0.000000 
	 Stop Angle : 0.000000 
	 Step Size  : 0.000000 
	 Oscillating: no 

Axis[8]
	 Selected   : no 
	 Iterative  : no 
	 Start Angle: 0.000000 
	 Stop Angle : 0.000000 
	 Step Size  : 0.000000 
	 Oscillating: no 

Axis[9]
	 Selected   : no 
	 Iterative  : no 
	 Start Angle: 0.000000 
	 Stop Angle : 0.000000 
	 Step Size  : 0.000000 
	 Oscillating: no 




	   Deg.      CPS  	    ESD   

Range 0
   5.000	    250.00	    45.644
   5.020	    208.33	    41.667
   5.040	    250.00	    45.644
   5.060	    225.00	    43.301
   5.080	    166.67	    37.268
   5.100	    308.33	    50.690
   5.120	    216.67	    42.492
   5.140	    225.00	    43.301
   5.160	    233.33	    44.096
   5.180	    200.00	    40.825
   5.200	    233.33	    44.096
   5.220	    250.00	    45.644
   5.240	    233.33	    44.096
   5.260	    216.67	    42.492
   5.280	    191.67	    39.965
   5.300	    200.00	    40.825
   5.320	    208.33	    41.667
   5.340	    183.33	    39.087
   5.360	    283.33	    48.591
   5.380	    150.00	    35.355
   5.400	    325.00	    52.042
   5.420	    216.67	    42.492
   5.440	    283.33	    48.591
   5.460	    183.33	    39.087
   5.480	    200.00	    40.825
   5.500	    225.00	    43.301
   5.520	    225.00	    43.301
   5.540	    150.00	    35.355
   5.560	    141.67	    34.359
   5.580	    241.67	    44.876
   5.600	    158.33	    36.324
   5.620	    266.67	    47.140
   5.640	    241.67	    44.876
   5.660	    191.67	    39.965
   5.680	    183.33	    39.087
   5.700	    200.00	    40.825
   5.720	    158.33	    36.324
   5.740	    166.67	    37.268
   5.760	    175.00	    38.188
   5.780	    208.33	    41.667
   5.800	    183.33	    39.087
   5.820	    166.67	    37.268
   5.840	    166.67	    37.268
   5.860	    158.33	    36.324
   5.880	    183.33	    39.087
   5.900	    308.33	    50.690
   5.920	    191.67	    39.965
   5.940	    175.00	    38.188
   5.960	    158.33	    36.324
   5.980	    200.00	    40.825
   6.000	    200.00	    40.825
   6.020	    150.00	    35.355
   6.040	    208.33	    41.667
   6.060	    200.00	    40.825
   6.080	    183.33	    39.087
   6.100	    166.67	    37.268
   6.120	    158.33	    36.324
   6.140	    241.67	    44.876
   6.160	    141.67	    34.359
   6.180	    133.33	    33.333
   6.200	    250.00	    45.644
   6.220	    150.00	    35.355
   6.240	    225.00	    43.301
   6.260	    175.00	    38.188
   6.280	    125.00	    32.275
   6.300	    150.00	    35.355
   6.320	    258.33	    46.398
   6.340	    175.00	    38.188
   6.360	    125.00	    32.275
   6.380	    183.33	    39.087
   6.400	    275.00	    47.871
   6.420	    133.33	    33.333
   6.440	    200.00	    40.825
   6.460	    175.00	    38.188
   6.480	    175.00	    38.188
   6.500	    158.33	    36.324
   6.520	    108.33	    30.046
   6.540	    241.67	    44.876
   6.560	    116.67	    31.180
   6.580	    191.67	    39.965
   6.600	    166.67	    37.268
   6.620	    141.67	    34.359
   6.640	    125.00	    32.275
   6.660	    158.33	    36.324
   6.680	    158.33	    36.324
   6.700	    150.00	    35.355
   6.720	    191.67	    39.965
   6.740	    100.00	    28.868
   6.760	    116.67	    31.180
   6.780	    125.00	    32.275
   6.800	    183.33	    39.087
   6.820	    141.67	    34.359
   6.840	    141.67	    34.359
   6.860	    191.67	    39.965
   6.880	    158.33	    36.324
   6.900	    125.00	    32.275
   6.920	    125.00	    32.275
   6.940	    141.67	    34.359
   6.960	    141.67	    34.359
   6.980	    133.33	    33.333
   7.000	    175.00	    38.188
   7.020	    166.67	    37.268
   7.040	    116.67	    31.180
   7.060	    158.33	    36.324
   7.080	    200.00	    40.825
   7.100	    225.00	    43.301
   7.120	    200.00	    40.825
   7.140	    125.00	    32.275
   7.160	    166.67	    37.268
   7.180	    141.67	    34.359
   7.200	    125.00	    32.275
   7.220	    108.33	    30.046
   7.240	    175.00	    38.188
   7.260	    150.00	    35.355
   7.280	    158.33	    36.324
   7.300	    183.33	    39.087
   7.320	    133.33	    33.333
   7.340	    258.33	    46.398
   7.360	    158.33	    36.324
   7.380	    133.33	    33.333
   7.400	    150.00	    35.355
   7.420	    125.00	    32.275
   7.440	    141.67	    34.359
   7.460	    200.00	    40.825
   7.480	    133.33	    33.333
   7.500	    108.33	    30.046
   7.520	    133.33	    33.333
   7.540	    158.33	    36.324
   7.560	    200.00	    40.825
   7.580	    175.00	    38.188
   7.600	    166.67	    37.268
   7.620	    116.67	    31.180
   7.640	    116.67	    31.180
   7.660	    141.67	    34.359
   7.680	    183.33	    39.087
   7.700	    175.00	    38.188
   7.720	    166.67	    37.268
   7.740	    158.33	    36.324
   7.760	    125.00	    32.275
   7.780	    133.33	    33.333
   7.800	    141.67	    34.359
   7.820	    133.33	    33.333
   7.840	    108.33	    30.046
   7.860	    133.33	    33.333
   7.880	    166.67	    37.268
   7.900	    125.00	    32.275
   7.920	    141.67	    34.359
   7.940	    150.00	    35.355
   7.960	    191.67	    39.965
   7.980	    158.33	    36.324
   8.000	    108.33	    30.046
   8.020	    116.67	    31.180
   8.040	    125.00	    32.275
   8.060	    125.00	    32.275
   8.080	    125.00	    32.275
   8.100	    108.33	    30.046
   8.120	    125.00	    32.275
   8.140	    158.33	    36.324
   8.160	    100.00	    28.868
   8.180	     91.67	    27.639
   8.200	    141.67	    34.359
   8.220	    141.67	    34.359
   8.240	     91.67	    27.639
   8.260	    116.67	    31.180
   8.280	    158.33	    36.324
   8.300	     75.00	    25.000
   8.320	    125.00	    32.275
   8.340	    183.33	    39.087
   8.360	    116.67	    31.180
   8.380	    183.33	    39.087
   8.400	    100.00	    28.868
   8.420	    125.00	    32.275
   8.440	    133.33	    33.333
   8.460	    183.33	    39.087
   8.480	    116.67	    31.180
   8.500	    208.33	    41.667
   8.520	    125.00	    32.275
   8.540	    166.67	    37.268
   8.560	    116.67	    31.180
   8.580	    108.33	    30.046
   8.600	    158.33	    36.324
   8.620	    166.67	    37.268
   8.640	    158.33	    36.324
   8.660	    133.33	    33.333
   8.680	    133.33	    33.333
   8.700	    175.00	    38.188
   8.720	    183.33	    39.087
   8.740	    166.67	    37.268
   8.760	    150.00	    35.355
   8.780	    125.00	    32.275
   8.800	    150.00	    35.355
   8.820	    208.33	    41.667
   8.840	    108.33	    30.046
   8.860	    133.33	    33.333
   8.880	     83.33	    26.352
   8.900	    125.00	    32.275
   8.920	    133.33	    33.333
   8.940	    175.00	    38.188
   8.960	     83.33	    26.352
   8.980	    125.00	    32.275
   9.000	     58.33	    22.048
   9.020	    108.33	    30.046
   9.040	    225.00	    43.301
   9.060	    133.33	    33.333
   9.080	    100.00	    28.868
   9.100	    158.33	    36.324
   9.120	    150.00	    35.355
   9.140	    133.33	    33.333
   9.160	    125.00	    32.275
   9.180	    191.67	    39.965
   9.200	    183.33	    39.087
   9.220	    116.67	    31.180
   9.240	    141.67	    34.359
   9.260	    141.67	    34.359
   9.280	    141.67	    34.359
   9.300	    158.33	    36.324
   9.320	    116.67	    31.180
   9.340	    141.67	    34.359
   9.360	    258.33	    46.398
   9.380	    125.00	    32.275
   9.400	    133.33	    33.333
   9.420	    175.00	    38.188
   9.440	    141.67	    34.359
   9.460	    158.33	    36.324
   9.480	    166.67	    37.268
   9.500	    158.33	    36.324
   9.520	    108.33	    30.046
   9.540	    175.00	    38.188
   9.560	     75.00	    25.000
   9.580	     91.67	    27.639
   9.600	    183.33	    39.087
   9.620	    133.33	    33.333
   9.640	    141.67	    34.359
   9.660	    141.67	    34.359
   9.680	    116.67	    31.180
   9.700	    150.00	    35.355
   9.720	    108.33	    30.046
   9.740	    125.00	    32.275
   9.760	    100.00	    28.868
   9.780	    166.67	    37.268
   9.800	    158.33	    36.324
   9.820	    125.00	    32.275
   9.840	    133.33	    33.333
   9.860	    116.67	    31.180
   9.880	    116.67	    31.180
   9.900	     91.67	    27.639
   9.920	    100.00	    28.868
   9.940	    200.00	    40.825
   9.960	    116.67	    31.180
   9.980	    141.67	    34.359
  10.000	    166.67	    37.268
  10.020	    116.67	    31.180
  10.040	    100.00	    28.868
  10.060	    133.33	    33.333
  10.080	    166.67	    37.268
  10.100	     91.67	    27.639
  10.120	    191.67	    39.965
  10.140	    108.33	    30.046
  10.160	    166.67	    37.268
  10.180	    200.00	    40.825
  10.200	     91.67	    27.639
  10.220	    133.33	    33.333
  10.240	    116.67	    31.180
  10.260	    125.00	    32.275
  10.280	    200.00	    40.825
  10.300	    116.67	    31.180
  10.320	    133.33	    33.333
  10.340	    125.00	    32.275
  10.360	    108.33	    30.046
  10.380	    150.00	    35.355
  10.400	    141.67	    34.359
  10.420	    158.33	    36.324
  10.440	    158.33	    36.324
  10.460	    141.67	    34.359
  10.480	    116.67	    31.180
  10.500	    150.00	    35.355
  10.520	    133.33	    33.333
  10.540	    108.33	    30.046
  10.560	     91.67	    27.639
  10.580	     91.67	    27.639
  10.600	    125.00	    32.275
  10.620	     66.67	    23.570
  10.640	     75.00	    25.000
  10.660	    166.67	    37.268
  10.680	    133.33	    33.333
  10.700	    141.67	    34.359
  10.720	    125.00	    32.275
  10.740	    125.00	    32.275
  10.760	    100.00	    28.868
  10.780	    125.00	    32.275
  10.800	    141.67	    34.359
  10.820	    141.67	    34.359
  10.840	     50.00	    20.412
  10.860	     91.67	    27.639
  10.880	    108.33	    30.046
  10.900	    108.33	    30.046
  10.920	    100.00	    28.868
  10.940	    116.67	    31.180
  10.960	     75.00	    25.000
  10.980	    166.67	    37.268
  11.000	    108.33	    30.046
  11.020	    200.00	    40.825
  11.040	    141.67	    34.359
  11.060	    125.00	    32.275
  11.080	    191.67	    39.965
  11.100	    125.00	    32.275
  11.120	    108.33	    30.046
  11.140	     83.33	    26.352
  11.160	    133.33	    33.333
  11.180	    158.33	    36.324
  11.200	    158.33	    36.324
  11.220	     58.33	    22.048
  11.240	    125.00	    32.275
  11.260	    125.00	    32.275
  11.280	    108.33	    30.046
  11.300	    116.67	    31.180
  11.320	     91.67	    27.639
  11.340	    183.33	    39.087
  11.360	    133.33	    33.333
  11.380	    158.33	    36.324
  11.400	    108.33	    30.046
  11.420	    150.00	    35.355
  11.440	    141.67	    34.359
  11.460	    125.00	    32.275
  11.480	    100.00	    28.868
  11.500	    216.67	    42.492
  11.520	    191.67	    39.965
  11.540	    166.67	    37.268
  11.560	     83.33	    26.352
  11.580	    125.00	    32.275
  11.600	    208.33	    41.667
  11.620	    141.67	    34.359
  11.640	    141.67	    34.359
  11.660	    175.00	    38.188
  11.680	     58.33	    22.048
  11.700	     83.33	    26.352
  11.720	    108.33	    30.046
  11.740	    116.67	    31.180
  11.760	    100.00	    28.868
  11.780	    116.67	    31.180
  11.800	     75.00	    25.000
  11.820	    133.33	    33.333
  11.840	    116.67	    31.180
  11.860	     83.33	    26.352
  11.880	    100.00	    28.868
  11.900	    100.00	    28.868
  11.920	    158.33	    36.324
  11.940	    116.67	    31.180
  11.960	    108.33	    30.046
  11.980	    100.00	    28.868
  12.000	    116.67	    31.180
  12.020	     91.67	    27.639
  12.040	    166.67	    37.268
  12.060	    100.00	    28.868
  12.080	    150.00	    35.355
  12.100	    116.67	    31.180
  12.120	    166.67	    37.268
  12.140	    125.00	    32.275
  12.160	    200.00	    40.825
  12.180	    125.00	    32.275
  12.200	    100.00	    28.868
  12.220	     83.33	    26.352
  12.240	    208.33	    41.667
  12.260	    141.67	    34.359
  12.280	     91.67	    27.639
  12.300	    100.00	    28.868
  12.320	    141.67	    34.359
  12.340	     66.67	    23.570
  12.360	    200.00	    40.825
  12.380	    141.67	    34.359
  12.400	    108.33	    30.046
  12.420	    133.33	    33.333
  12.440	     83.33	    26.352
  12.460	    125.00	    32.275
  12.480	    150.00	    35.355
  12.500	    150.00	    35.355
  12.520	    183.33	    39.087
  12.540	    116.67	    31.180
  12.560	    100.00	    28.868
  12.580	    250.00	    45.644
  12.600	    208.33	    41.667
  12.620	    225.00	    43.301
  12.640	    250.00	    45.644
  12.660	    316.67	    51.370
  12.680	    200.00	    40.825
  12.700	    225.00	    43.301
  12.720	    408.33	    58.333
  12.740	    266.67	    47.140
  12.760	    466.67	    62.361
  12.780	    250.00	    45.644
  12.800	    458.33	    61.802
  12.820	    300.00	    50.000
  12.840	    241.67	    44.876
  12.860	    291.67	    49.301
  12.880	    183.33	    39.087
  12.900	    200.00	    40.825
  12.920	    191.67	    39.965
  12.940	    191.67	    39.965
  12.960	     83.33	    26.352
  12.980	    100.00	    28.868
  13.000	     91.67	    27.639
  13.020	    158.33	    36.324
  13.040	    158.33	    36.324
  13.060	     91.67	    27.639
  13.080	    183.33	    39.087
  13.100	    133.33	    33.333
  13.120	    216.67	    42.492
  13.140	    175.00	    38.188
  13.160	    150.00	    35.355
  13.180	    100.00	    28.868
  13.200	     91.67	    27.639
  13.220	     91.67	    27.639
  13.240	    158.33	    36.324
  13.260	    116.67	    31.180
  13.280	    125.00	    32.275
  13.300	    125.00	    32.275
  13.320	    158.33	    36.324
  13.340	    108.33	    30.046
  13.360	    183.33	    39.087
  13.380	    125.00	    32.275
  13.400	    158.33	    36.324
  13.420	    108.33	    30.046
  13.440	    125.00	    32.275
  13.460	    175.00	    38.188
  13.480	    150.00	    35.355
  13.500	     91.67	    27.639
  13.520	     91.67	    27.639
  13.540	    116.67	    31.180
  13.560	    108.33	    30.046
  13.580	    125.00	    32.275
  13.600	    158.33	    36.324
  13.620	    166.67	    37.268
  13.640	    166.67	    37.268
  13.660	    125.00	    32.275
  13.680	     91.67	    27.639
  13.700	    141.67	    34.359
  13.720	    125.00	    32.275
  13.740	    116.67	    31.180
  13.760	    158.33	    36.324
  13.780	    158.33	    36.324
  13.800	     83.33	    26.352
  13.820	    108.33	    30.046
  13.840	     83.33	    26.352
  13.860	    200.00	    40.825
  13.880	    141.67	    34.359
  13.900	    141.67	    34.359
  13.920	    166.67	    37.268
  13.940	    150.00	    35.355
  13.960	     91.67	    27.639
  13.980	    116.67	    31.180
  14.000	    141.67	    34.359
  14.020	    150.00	    35.355
  14.040	    108.33	    30.046
  14.060	    158.33	    36.324
  14.080	    125.00	    32.275
  14.100	    166.67	    37.268
  14.120	    158.33	    36.324
  14.140	    116.67	    31.180
  14.160	    100.00	    28.868
  14.180	    125.00	    32.275
  14.200	    125.00	    32.275
  14.220	     91.67	    27.639
  14.240	    200.00	    40.825
  14.260	    116.67	    31.180
  14.280	    116.67	    31.180
  14.300	    125.00	    32.275
  14.320	    116.67	    31.180
  14.340	    150.00	    35.355
  14.360	     83.33	    26.352
  14.380	    141.67	    34.359
  14.400	    133.33	    33.333
  14.420	     83.33	    26.352
  14.440	    133.33	    33.333
  14.460	    166.67	    37.268
  14.480	    125.00	    32.275
  14.500	    216.67	    42.492
  14.520	    116.67	    31.180
  14.540	    125.00	    32.275
  14.560	    108.33	    30.046
  14.580	    150.00	    35.355
  14.600	    141.67	    34.359
  14.620	     91.67	    27.639
  14.640	    133.33	    33.333
  14.660	    158.33	    36.324
  14.680	    133.33	    33.333
  14.700	    158.33	    36.324
  14.720	    108.33	    30.046
  14.740	    150.00	    35.355
  14.760	    125.00	    32.275
  14.780	    166.67	    37.268
  14.800	    141.67	    34.359
  14.820	    200.00	    40.825
  14.840	    183.33	    39.087
  14.860	    116.67	    31.180
  14.880	    208.33	    41.667
  14.900	     91.67	    27.639
  14.920	    133.33	    33.333
  14.940	    158.33	    36.324
  14.960	    141.67	    34.359
  14.980	    141.67	    34.359
  15.000	    183.33	    39.087
  15.020	    183.33	    39.087
  15.040	    166.67	    37.268
  15.060	    183.33	    39.087
  15.080	    141.67	    34.359
  15.100	    166.67	    37.268
  15.120	    133.33	    33.333
  15.140	     75.00	    25.000
  15.160	    116.67	    31.180
  15.180	    125.00	    32.275
  15.200	    100.00	    28.868
  15.220	    191.67	    39.965
  15.240	    133.33	    33.333
  15.260	    108.33	    30.046
  15.280	    116.67	    31.180
  15.300	    108.33	    30.046
  15.320	    183.33	    39.087
  15.340	    125.00	    32.275
  15.360	    175.00	    38.188
  15.380	    116.67	    31.180
  15.400	    100.00	    28.868
  15.420	    158.33	    36.324
  15.440	    216.67	    42.492
  15.460	    141.67	    34.359
  15.480	    116.67	    31.180
  15.500	    175.00	    38.188
  15.520	    125.00	    32.275
  15.540	    216.67	    42.492
  15.560	     75.00	    25.000
  15.580	     75.00	    25.000
  15.600	    133.33	    33.333
  15.620	    166.67	    37.268
  15.640	    166.67	    37.268
  15.660	     91.67	    27.639
  15.680	    133.33	    33.333
  15.700	     83.33	    26.352
  15.720	    133.33	    33.333
  15.740	    125.00	    32.275
  15.760	    116.67	    31.180
  15.780	    133.33	    33.333
  15.800	    141.67	    34.359
  15.820	    100.00	    28.868
  15.840	    166.67	    37.268
  15.860	    133.33	    33.333
  15.880	    175.00	    38.188
  15.900	    116.67	    31.180
  15.920	    108.33	    30.046
  15.940	    116.67	    31.180
  15.960	    125.00	    32.275
  15.980	    166.67	    37.268
  16.000	    125.00	    32.275
  16.020	    108.33	    30.046
  16.040	     91.67	    27.639
  16.060	    108.33	    30.046
  16.080	     83.33	    26.352
  16.100	    108.33	    30.046
  16.120	    133.33	    33.333
  16.140	    150.00	    35.355
  16.160	    133.33	    33.333
  16.180	     91.67	    27.639
  16.200	     91.67	    27.639
  16.220	    116.67	    31.180
  16.240	    158.33	    36.324
  16.260	    191.67	    39.965
  16.280	    125.00	    32.275
  16.300	    141.67	    34.359
  16.320	     58.33	    22.048
  16.340	    133.33	    33.333
  16.360	    150.00	    35.355
  16.380	    166.67	    37.268
  16.400	    141.67	    34.359
  16.420	    108.33	    30.046
  16.440	    125.00	    32.275
  16.460	    116.67	    31.180
  16.480	    133.33	    33.333
  16.500	    125.00	    32.275
  16.520	    108.33	    30.046
  16.540	    125.00	    32.275
  16.560	    150.00	    35.355
  16.580	     75.00	    25.000
  16.600	    116.67	    31.180
  16.620	    158.33	    36.324
  16.640	    125.00	    32.275
  16.660	    125.00	    32.275
  16.680	     91.67	    27.639
  16.700	    141.67	    34.359
  16.720	    133.33	    33.333
  16.740	    125.00	    32.275
  16.760	    116.67	    31.180
  16.780	     83.33	    26.352
  16.800	    116.67	    31.180
  16.820	     91.67	    27.639
  16.840	    166.67	    37.268
  16.860	    175.00	    38.188
  16.880	    166.67	    37.268
  16.900	    191.67	    39.965
  16.920	    108.33	    30.046
  16.940	    191.67	    39.965
  16.960	    141.67	    34.359
  16.980	    150.00	    35.355
  17.000	    100.00	    28.868
  17.020	    133.33	    33.333
  17.040	     91.67	    27.639
  17.060	    116.67	    31.180
  17.080	    183.33	    39.087
  17.100	    233.33	    44.096
  17.120	    141.67	    34.359
  17.140	    150.00	    35.355
  17.160	    125.00	    32.275
  17.180	     91.67	    27.639
  17.200	    166.67	    37.268
  17.220	    150.00	    35.355
  17.240	     91.67	    27.639
  17.260	    183.33	    39.087
  17.280	    208.33	    41.667
  17.300	    158.33	    36.324
  17.320	    141.67	    34.359
  17.340	    166.67	    37.268
  17.360	    166.67	    37.268
  17.380	    158.33	    36.324
  17.400	     75.00	    25.000
  17.420	    166.67	    37.268
  17.440	    166.67	    37.268
  17.460	    116.67	    31.180
  17.480	     66.67	    23.570
  17.500	    141.67	    34.359
  17.520	    175.00	    38.188
  17.540	    141.67	    34.359
  17.560	    191.67	    39.965
  17.580	     91.67	    27.639
  17.600	    191.67	    39.965
  17.620	    133.33	    33.333
  17.640	    150.00	    35.355
  17.660	    141.67	    34.359
  17.680	    125.00	    32.275
  17.700	    158.33	    36.324
  17.720	    125.00	    32.275
  17.740	    125.00	    32.275
  17.760	    133.33	    33.333
  17.780	    166.67	    37.268
  17.800	    141.67	    34.359
  17.820	     91.67	    27.639
  17.840	     91.67	    27.639
  17.860	    116.67	    31.180
  17.880	    100.00	    28.868
  17.900	     91.67	    27.639
  17.920	    125.00	    32.275
  17.940	    125.00	    32.275
  17.960	    150.00	    35.355
  17.980	    175.00	    38.188
  18.000	     91.67	    27.639
  18.020	    158.33	    36.324
  18.040	    175.00	    38.188
  18.060	    200.00	    40.825
  18.080	    125.00	    32.275
  18.100	    125.00	    32.275
  18.120	    133.33	    33.333
  18.140	    108.33	    30.046
  18.160	    125.00	    32.275
  18.180	    175.00	    38.188
  18.200	    191.67	    39.965
  18.220	    116.67	    31.180
  18.240	    125.00	    32.275
  18.260	    116.67	    31.180
  18.280	    133.33	    33.333
  18.300	    141.67	    34.359
  18.320	    158.33	    36.324
  18.340	    166.67	    37.268
  18.360	    208.33	    41.667
  18.380	    116.67	    31.180
  18.400	    158.33	    36.324
  18.420	    183.33	    39.087
  18.440	    108.33	    30.046
  18.460	    158.33	    36.324
  18.480	    175.00	    38.188
  18.500	    125.00	    32.275
  18.520	    158.33	    36.324
  18.540	    141.67	    34.359
  18.560	    108.33	    30.046
  18.580	    116.67	    31.180
  18.600	    175.00	    38.188
  18.620	     91.67	    27.639
  18.640	    116.67	    31.180
  18.660	    108.33	    30.046
  18.680	    116.67	    31.180
  18.700	    158.33	    36.324
  18.720	    216.67	    42.492
  18.740	    108.33	    30.046
  18.760	    183.33	    39.087
  18.780	    125.00	    32.275
  18.800	    125.00	    32.275
  18.820	    116.67	    31.180
  18.840	    133.33	    33.333
  18.860	    158.33	    36.324
  18.880	    133.33	    33.333
  18.900	    150.00	    35.355
  18.920	    141.67	    34.359
  18.940	    125.00	    32.275
  18.960	    166.67	    37.268
  18.980	    141.67	    34.359
  19.000	    125.00	    32.275
  19.020	     91.67	    27.639
  19.040	    175.00	    38.188
  19.060	    158.33	    36.324
  19.080	    191.67	    39.965
  19.100	    208.33	    41.667
  19.120	    158.33	    36.324
  19.140	    133.33	    33.333
  19.160	    216.67	    42.492
  19.180	    141.67	    34.359
  19.200	    125.00	    32.275
  19.220	    116.67	    31.180
  19.240	    108.33	    30.046
  19.260	    108.33	    30.046
  19.280	    116.67	    31.180
  19.300	    141.67	    34.359
  19.320	    191.67	    39.965
  19.340	    133.33	    33.333
  19.360	     91.67	    27.639
  19.380	    200.00	    40.825
  19.400	    158.33	    36.324
  19.420	    150.00	    35.355
  19.440	    175.00	    38.188
  19.460	    191.67	    39.965
  19.480	    166.67	    37.268
  19.500	    175.00	    38.188
  19.520	    175.00	    38.188
  19.540	    100.00	    28.868
  19.560	    183.33	    39.087
  19.580	    116.67	    31.180
  19.600	    133.33	    33.333
  19.620	    125.00	    32.275
  19.640	    125.00	    32.275
  19.660	    191.67	    39.965
  19.680	    208.33	    41.667
  19.700	     83.33	    26.352
  19.720	    183.33	    39.087
  19.740	    183.33	    39.087
  19.760	    125.00	    32.275
  19.780	    108.33	    30.046
  19.800	    116.67	    31.180
  19.820	     91.67	    27.639
  19.840	    183.33	    39.087
  19.860	     91.67	    27.639
  19.880	    166.67	    37.268
  19.900	    125.00	    32.275
  19.920	    158.33	    36.324
  19.940	    133.33	    33.333
  19.960	    125.00	    32.275
  19.980	    158.33	    36.324
  20.000	    141.67	    34.359
  20.020	    150.00	    35.355
  20.040	    100.00	    28.868
  20.060	    150.00	    35.355
  20.080	    141.67	    34.359
  20.100	    208.33	    41.667
  20.120	    125.00	    32.275
  20.140	    150.00	    35.355
  20.160	    100.00	    28.868
  20.180	    175.00	    38.188
  20.200	    125.00	    32.275
  20.220	    116.67	    31.180
  20.240	    191.67	    39.965
  20.260	    150.00	    35.355
  20.280	    191.67	    39.965
  20.300	    100.00	    28.868
  20.320	    158.33	    36.324
  20.340	     83.33	    26.352
  20.360	    208.33	    41.667
  20.380	    150.00	    35.355
  20.400	    116.67	    31.180
  20.420	    108.33	    30.046
  20.440	    208.33	    41.667
  20.460	    158.33	    36.324
  20.480	    191.67	    39.965
  20.500	    191.67	    39.965
  20.520	    158.33	    36.324
  20.540	     83.33	    26.352
  20.560	    183.33	    39.087
  20.580	     75.00	    25.000
  20.600	    141.67	    34.359
  20.620	    141.67	    34.359
  20.640	    100.00	    28.868
  20.660	    150.00	    35.355
  20.680	    150.00	    35.355
  20.700	    116.67	    31.180
  20.720	    108.33	    30.046
  20.740	    116.67	    31.180
  20.760	    216.67	    42.492
  20.780	    116.67	    31.180
  20.800	    108.33	    30.046
  20.820	    125.00	    32.275
  20.840	    125.00	    32.275
  20.860	    233.33	    44.096
  20.880	    191.67	    39.965
  20.900	    191.67	    39.965
  20.920	    225.00	    43.301
  20.940	    158.33	    36.324
  20.960	    133.33	    33.333
  20.980	    191.67	    39.965
  21.000	    158.33	    36.324
  21.020	    158.33	    36.324
  21.040	    183.33	    39.087
  21.060	    150.00	    35.355
  21.080	    200.00	    40.825
  21.100	    125.00	    32.275
  21.120	    200.00	    40.825
  21.140	     83.33	    26.352
  21.160	    183.33	    39.087
  21.180	    108.33	    30.046
  21.200	    166.67	    37.268
  21.220	    158.33	    36.324
  21.240	    116.67	    31.180
  21.260	    133.33	    33.333
  21.280	    166.67	    37.268
  21.300	    175.00	    38.188
  21.320	    116.67	    31.180
  21.340	    191.67	    39.965
  21.360	    141.67	    34.359
  21.380	    100.00	    28.868
  21.400	    125.00	    32.275
  21.420	    116.67	    31.180
  21.440	    141.67	    34.359
  21.460	    158.33	    36.324
  21.480	    166.67	    37.268
  21.500	    125.00	    32.275
  21.520	    250.00	    45.644
  21.540	    191.67	    39.965
  21.560	    183.33	    39.087
  21.580	    175.00	    38.188
  21.600	    158.33	    36.324
  21.620	    108.33	    30.046
  21.640	    166.67	    37.268
  21.660	    183.33	    39.087
  21.680	    158.33	    36.324
  21.700	    150.00	    35.355
  21.720	    150.00	    35.355
  21.740	    183.33	    39.087
  21.760	    150.00	    35.355
  21.780	    191.67	    39.965
  21.800	    150.00	    35.355
  21.820	    125.00	    32.275
  21.840	    133.33	    33.333
  21.860	    116.67	    31.180
  21.880	    116.67	    31.180
  21.900	     75.00	    25.000
  21.920	    175.00	    38.188
  21.940	    125.00	    32.275
  21.960	     75.00	    25.000
  21.980	    175.00	    38.188
  22.000	    183.33	    39.087
  22.020	    166.67	    37.268
  22.040	    141.67	    34.359
  22.060	    208.33	    41.667
  22.080	    200.00	    40.825
  22.100	    108.33	    30.046
  22.120	    141.67	    34.359
  22.140	    150.00	    35.355
  22.160	    191.67	    39.965
  22.180	     75.00	    25.000
  22.200	    158.33	    36.324
  22.220	    125.00	    32.275
  22.240	    208.33	    41.667
  22.260	    183.33	    39.087
  22.280	    175.00	    38.188
  22.300	    116.67	    31.180
  22.320	    141.67	    34.359
  22.340	    133.33	    33.333
  22.360	    100.00	    28.868
  22.380	    150.00	    35.355
  22.400	    133.33	    33.333
  22.420	    133.33	    33.333
  22.440	    158.33	    36.324
  22.460	    208.33	    41.667
  22.480	    150.00	    35.355
  22.500	    133.33	    33.333
  22.520	    183.33	    39.087
  22.540	    158.33	    36.324
  22.560	    158.33	    36.324
  22.580	    191.67	    39.965
  22.600	    183.33	    39.087
  22.620	    141.67	    34.359
  22.640	    133.33	    33.333
  22.660	    116.67	    31.180
  22.680	     91.67	    27.639
  22.700	    191.67	    39.965
  22.720	    133.33	    33.333
  22.740	    108.33	    30.046
  22.760	    141.67	    34.359
  22.780	    141.67	    34.359
  22.800	    191.67	    39.965
  22.820	    133.33	    33.333
  22.840	    125.00	    32.275
  22.860	    166.67	    37.268
  22.880	    141.67	    34.359
  22.900	    200.00	    40.825
  22.920	    133.33	    33.333
  22.940	    216.67	    42.492
  22.960	    166.67	    37.268
  22.980	    200.00	    40.825
  23.000	    225.00	    43.301
  23.020	    166.67	    37.268
  23.040	    191.67	    39.965
  23.060	    183.33	    39.087
  23.080	    133.33	    33.333
  23.100	    241.67	    44.876
  23.120	    308.33	    50.690
  23.140	    358.33	    54.645
  23.160	    383.33	    56.519
  23.180	    500.00	    64.550
  23.200	    441.67	    60.668
  23.220	    333.33	    52.705
  23.240	    616.67	    71.686
  23.260	    516.67	    65.617
  23.280	    641.67	    73.125
  23.300	    616.67	    71.686
  23.320	    633.33	    72.648
  23.340	    741.67	    78.617
  23.360	    666.67	    74.536
  23.380	    733.33	    78.174
  23.400	    808.33	    82.074
  23.420	    558.33	    68.211
  23.440	    533.33	    66.667
  23.460	    433.33	    60.093
  23.480	    466.67	    62.361
  23.500	    441.67	    60.668
  23.520	    508.33	    65.085
  23.540	    275.00	    47.871
  23.560	    341.67	    53.359
  23.580	    241.67	    44.876
  23.600	    283.33	    48.591
  23.620	    100.00	    28.868
  23.640	    208.33	    41.667
  23.660	    150.00	    35.355
  23.680	    200.00	    40.825
  23.700	    150.00	    35.355
  23.720	    250.00	    45.644
  23.740	    225.00	    43.301
  23.760	    133.33	    33.333
  23.780	    125.00	    32.275
  23.800	    233.33	    44.096
  23.820	    158.33	    36.324
  23.840	    141.67	    34.359
  23.860	    175.00	    38.188
  23.880	    175.00	    38.188
  23.900	    191.67	    39.965
  23.920	    158.33	    36.324
  23.940	    241.67	    44.876
  23.960	    141.67	    34.359
  23.980	    175.00	    38.188
  24.000	     91.67	    27.639
  24.020	     91.67	    27.639
  24.040	    191.67	    39.965
  24.060	    191.67	    39.965
  24.080	    116.67	    31.180
  24.100	    141.67	    34.359
  24.120	    141.67	    34.359
  24.140	    200.00	    40.825
  24.160	    166.67	    37.268
  24.180	    183.33	    39.087
  24.200	    100.00	    28.868
  24.220	    200.00	    40.825
  24.240	    125.00	    32.275
  24.260	    158.33	    36.324
  24.280	    233.33	    44.096
  24.300	    150.00	    35.355
  24.320	    141.67	    34.359
  24.340	    175.00	    38.188
  24.360	    141.67	    34.359
  24.380	    100.00	    28.868
  24.400	    100.00	    28.868
  24.420	    141.67	    34.359
  24.440	     58.33	    22.048
  24.460	    166.67	    37.268
  24.480	    175.00	    38.188
  24.500	    158.33	    36.324
  24.520	    108.33	    30.046
  24.540	    141.67	    34.359
  24.560	    150.00	    35.355
  24.580	    200.00	    40.825
  24.600	    125.00	    32.275
  24.620	    200.00	    40.825
  24.640	    150.00	    35.355
  24.660	    233.33	    44.096
  24.680	    133.33	    33.333
  24.700	    116.67	    31.180
  24.720	    216.67	    42.492
  24.740	    150.00	    35.355
  24.760	    183.33	    39.087
  24.780	    158.33	    36.324
  24.800	     91.67	    27.639
  24.820	    116.67	    31.180
  24.840	    225.00	    43.301
  24.860	    141.67	    34.359
  24.880	    116.67	    31.180
  24.900	    200.00	    40.825
  24.920	    141.67	    34.359
  24.940	    158.33	    36.324
  24.960	    125.00	    32.275
  24.980	    116.67	    31.180
  25.000	    125.00	    32.275
  25.020	     83.33	    26.352
  25.040	    141.67	    34.359
  25.060	    191.67	    39.965
  25.080	    183.33	    39.087
  25.100	    200.00	    40.825
  25.120	    175.00	    38.188
  25.140	    125.00	    32.275
  25.160	    191.67	    39.965
  25.180	    150.00	    35.355
  25.200	    166.67	    37.268
  25.220	    183.33	    39.087
  25.240	    208.33	    41.667
  25.260	    141.67	    34.359
  25.280	    150.00	    35.355
  25.300	    125.00	    32.275
  25.320	    108.33	    30.046
  25.340	    150.00	    35.355
  25.360	    191.67	    39.965
  25.380	    158.33	    36.324
  25.400	    175.00	    38.188
  25.420	    275.00	    47.871
  25.440	    208.33	    41.667
  25.460	    291.67	    49.301
  25.480	    300.00	    50.000
  25.500	    325.00	    52.042
  25.520	    266.67	    47.140
  25.540	    400.00	    57.735
  25.560	    375.00	    55.902
  25.580	    433.33	    60.093
  25.600	    675.00	    75.000
  25.620	    575.00	    69.222
  25.640	    533.33	    66.667
  25.660	    791.67	    81.223
  25.680	    741.67	    78.617
  25.700	    858.33	    84.574
  25.720	    725.00	    77.728
  25.740	    650.00	    73.598
  25.760	    591.67	    70.218
  25.780	    616.67	    71.686
  25.800	    525.00	    66.144
  25.820	    450.00	    61.237
  25.840	    316.67	    51.370
  25.860	    283.33	    48.591
  25.880	    275.00	    47.871
  25.900	    216.67	    42.492
  25.920	    225.00	    43.301
  25.940	    150.00	    35.355
  25.960	    216.67	    42.492
  25.980	    150.00	    35.355
  26.000	    175.00	    38.188
  26.020	    241.67	    44.876
  26.040	     75.00	    25.000
  26.060	    133.33	    33.333
  26.080	    250.00	    45.644
  26.100	    208.33	    41.667
  26.120	    208.33	    41.667
  26.140	    141.67	    34.359
  26.160	    125.00	    32.275
  26.180	    200.00	    40.825
  26.200	    150.00	    35.355
  26.220	    158.33	    36.324
  26.240	    175.00	    38.188
  26.260	    191.67	    39.965
  26.280	    183.33	    39.087
  26.300	    183.33	    39.087
  26.320	     75.00	    25.000
  26.340	    208.33	    41.667
  26.360	    166.67	    37.268
  26.380	    208.33	    41.667
  26.400	    100.00	    28.868
  26.420	    150.00	    35.355
  26.440	    125.00	    32.275
  26.460	     91.67	    27.639
  26.480	    158.33	    36.324
  26.500	    141.67	    34.359
  26.520	    175.00	    38.188
  26.540	    158.33	    36.324
  26.560	    150.00	    35.355
  26.580	    158.33	    36.324
  26.600	    116.67	    31.180
  26.620	    166.67	    37.268
  26.640	    150.00	    35.355
  26.660	    116.67	    31.180
  26.680	    125.00	    32.275
  26.700	     75.00	    25.000
  26.720	    125.00	    32.275
  26.740	    200.00	    40.825
  26.760	    100.00	    28.868
  26.780	    141.67	    34.359
  26.800	    141.67	    34.359
  26.820	    158.33	    36.324
  26.840	    241.67	    44.876
  26.860	    116.67	    31.180
  26.880	    141.67	    34.359
  26.900	    100.00	    28.868
  26.920	    175.00	    38.188
  26.940	    158.33	    36.324
  26.960	     83.33	    26.352
  26.980	    108.33	    30.046
  27.000	    141.67	    34.359
  27.020	    166.67	    37.268
  27.040	    141.67	    34.359
  27.060	    208.33	    41.667
  27.080	    216.67	    42.492
  27.100	    250.00	    45.644
  27.120	    275.00	    47.871
  27.140	    333.33	    52.705
  27.160	    466.67	    62.361
  27.180	    500.00	    64.550
  27.200	    566.67	    68.718
  27.220	    641.67	    73.125
  27.240	    666.67	    74.536
  27.260	    850.00	    84.163
  27.280	    966.67	    89.753
  27.300	    825.00	    82.916
  27.320	   1166.67	    98.601
  27.340	   1158.33	    98.249
  27.360	   1083.33	    95.015
  27.380	   1208.33	   100.347
  27.400	   1183.33	    99.303
  27.420	   1100.00	    95.743
  27.440	    666.67	    74.536
  27.460	    783.33	    80.795
  27.480	    475.00	    62.915
  27.500	    366.67	    55.277
  27.520	    350.00	    54.006
  27.540	    233.33	    44.096
  27.560	    275.00	    47.871
  27.580	    241.67	    44.876
  27.600	    141.67	    34.359
  27.620	     91.67	    27.639
  27.640	     91.67	    27.639
  27.660	     83.33	    26.352
  27.680	    116.67	    31.180
  27.700	    125.00	    32.275
  27.720	    100.00	    28.868
  27.740	    150.00	    35.355
  27.760	    150.00	    35.355
  27.780	    116.67	    31.180
  27.800	    141.67	    34.359
  27.820	    108.33	    30.046
  27.840	     91.67	    27.639
  27.860	    116.67	    31.180
  27.880	    116.67	    31.180
  27.900	    100.00	    28.868
  27.920	    116.67	    31.180
  27.940	     83.33	    26.352
  27.960	    141.67	    34.359
  27.980	    133.33	    33.333
  28.000	    125.00	    32.275
  28.020	    108.33	    30.046
  28.040	    100.00	    28.868
  28.060	    116.67	    31.180
  28.080	    116.67	    31.180
  28.100	     75.00	    25.000
  28.120	    116.67	    31.180
  28.140	    116.67	    31.180
  28.160	    125.00	    32.275
  28.180	     75.00	    25.000
  28.200	    116.67	    31.180
  28.220	    116.67	    31.180
  28.240	    125.00	    32.275
  28.260	    108.33	    30.046
  28.280	    100.00	    28.868
  28.300	    100.00	    28.868
  28.320	     66.67	    23.570
  28.340	     83.33	    26.352
  28.360	    183.33	    39.087
  28.380	    125.00	    32.275
  28.400	    125.00	    32.275
  28.420	    116.67	    31.180
  28.440	    125.00	    32.275
  28.460	     83.33	    26.352
  28.480	     91.67	    27.639
  28.500	    133.33	    33.333
  28.520	    108.33	    30.046
  28.540	    133.33	    33.333
  28.560	     91.67	    27.639
  28.580	    183.33	    39.087
  28.600	    175.00	    38.188
  28.620	     66.67	    23.570
  28.640	    166.67	    37.268
  28.660	    108.33	    30.046
  28.680	     66.67	    23.570
  28.700	    125.00	    32.275
  28.720	    125.00	    32.275
  28.740	     91.67	    27.639
  28.760	    158.33	    36.324
  28.780	     91.67	    27.639
  28.800	    116.67	    31.180
  28.820	    158.33	    36.324
  28.840	    133.33	    33.333
  28.860	    158.33	    36.324
  28.880	    125.00	    32.275
  28.900	    133.33	    33.333
  28.920	    133.33	    33.333
  28.940	     50.00	    20.412
  28.960	     75.00	    25.000
  28.980	     91.67	    27.639
  29.000	    150.00	    35.355
  29.020	    108.33	    30.046
  29.040	    175.00	    38.188
  29.060	    108.33	    30.046
  29.080	    125.00	    32.275
  29.100	    100.00	    28.868
  29.120	    100.00	    28.868
  29.140	     83.33	    26.352
  29.160	    108.33	    30.046
  29.180	    100.00	    28.868
  29.200	     50.00	    20.412
  29.220	    150.00	    35.355
  29.240	    116.67	    31.180
  29.260	    141.67	    34.359
  29.280	    100.00	    28.868
  29.300	    125.00	    32.275
  29.320	    141.67	    34.359
  29.340	    133.33	    33.333
  29.360	    158.33	    36.324
  29.380	    125.00	    32.275
  29.400	    158.33	    36.324
  29.420	    150.00	    35.355
  29.440	    150.00	    35.355
  29.460	    150.00	    35.355
  29.480	    133.33	    33.333
  29.500	    183.33	    39.087
  29.520	    183.33	    39.087
  29.540	    191.67	    39.965
  29.560	    141.67	    34.359
  29.580	    158.33	    36.324
  29.600	    141.67	    34.359
  29.620	    100.00	    28.868
  29.640	    116.67	    31.180
  29.660	    125.00	    32.275
  29.680	    108.33	    30.046
  29.700	     91.67	    27.639
  29.720	    100.00	    28.868
  29.740	    125.00	    32.275
  29.760	    116.67	    31.180
  29.780	    166.67	    37.268
  29.800	    150.00	    35.355
  29.820	    116.67	    31.180
  29.840	    108.33	    30.046
  29.860	    158.33	    36.324
  29.880	    100.00	    28.868
  29.900	     91.67	    27.639
  29.920	    100.00	    28.868
  29.940	    108.33	    30.046
  29.960	    133.33	    33.333
  29.980	     83.33	    26.352
  30.000	    141.67	    34.359
  30.020	    141.67	    34.359
  30.040	     66.67	    23.570
  30.060	     58.33	    22.048
  30.080	     75.00	    25.000
  30.100	     91.67	    27.639
  30.120	    158.33	    36.324
  30.140	     66.67	    23.570
  30.160	     66.67	    23.570
  30.180	     91.67	    27.639
  30.200	    125.00	    32.275
  30.220	    141.67	    34.359
  30.240	     50.00	    20.412
  30.260	     91.67	    27.639
  30.280	    116.67	    31.180
  30.300	    150.00	    35.355
  30.320	     91.67	    27.639
  30.340	    125.00	    32.275
  30.360	     75.00	    25.000
  30.380	     66.67	    23.570
  30.400	    116.67	    31.180
  30.420	    108.33	    30.046
  30.440	    100.00	    28.868
  30.460	     58.33	    22.048
  30.480	    158.33	    36.324
  30.500	     50.00	    20.412
  30.520	    133.33	    33.333
  30.540	     66.67	    23.570
  30.560	    125.00	    32.275
  30.580	     66.67	    23.570
  30.600	    116.67	    31.180
  30.620	     50.00	    20.412
  30.640	    100.00	    28.868
  30.660	     25.00	    14.434
  30.680	     66.67	    23.570
  30.700	     58.33	    22.048
  30.720	    116.67	    31.180
  30.740	    116.67	    31.180
  30.760	     75.00	    25.000
  30.780	     91.67	    27.639
  30.800	    108.33	    30.046
  30.820	     83.33	    26.352
  30.840	     66.67	    23.570
  30.860	    116.67	    31.180
  30.880	    116.67	    31.180
  30.900	    125.00	    32.275
  30.920	    108.33	    30.046
  30.940	     58.33	    22.048
  30.960	     58.33	    22.048
  30.980	     75.00	    25.000
  31.000	    125.00	    32.275
  31.020	    100.00	    28.868
  31.040	    108.33	    30.046
  31.060	    100.00	    28.868
  31.080	     91.67	    27.639
  31.100	    125.00	    32.275
  31.120	     58.33	    22.048
  31.140	    116.67	    31.180
  31.160	     83.33	    26.352
  31.180	     66.67	    23.570
  31.200	    125.00	    32.275
  31.220	     83.33	    26.352
  31.240	     58.33	    22.048
  31.260	     91.67	    27.639
  31.280	     58.33	    22.048
  31.300	    116.67	    31.180
  31.320	     91.67	    27.639
  31.340	     75.00	    25.000
  31.360	     58.33	    22.048
  31.380	     58.33	    22.048
  31.400	     58.33	    22.048
  31.420	     58.33	    22.048
  31.440	     41.67	    18.634
  31.460	     75.00	    25.000
  31.480	    141.67	    34.359
  31.500	     83.33	    26.352
  31.520	     58.33	    22.048
  31.540	    125.00	    32.275
  31.560	     66.67	    23.570
  31.580	     75.00	    25.000
  31.600	     66.67	    23.570
  31.620	    125.00	    32.275
  31.640	    125.00	    32.275
  31.660	    133.33	    33.333
  31.680	    125.00	    32.275
  31.700	    133.33	    33.333
  31.720	    150.00	    35.355
  31.740	     66.67	    23.570
  31.760	    125.00	    32.275
  31.780	    100.00	    28.868
  31.800	     66.67	    23.570
  31.820	     75.00	    25.000
  31.840	     75.00	    25.000
  31.860	     91.67	    27.639
  31.880	     75.00	    25.000
  31.900	    150.00	    35.355
  31.920	     66.67	    23.570
  31.940	     50.00	    20.412
  31.960	    100.00	    28.868
  31.980	     83.33	    26.352
  32.000	     83.33	    26.352
  32.020	     50.00	    20.412
  32.040	    108.33	    30.046
  32.060	     50.00	    20.412
  32.080	     58.33	    22.048
  32.100	     66.67	    23.570
  32.120	     83.33	    26.352
  32.140	    108.33	    30.046
  32.160	    108.33	    30.046
  32.180	    116.67	    31.180
  32.200	     66.67	    23.570
  32.220	     58.33	    22.048
  32.240	     66.67	    23.570
  32.260	     50.00	    20.412
  32.280	     91.67	    27.639
  32.300	    100.00	    28.868
  32.320	    100.00	    28.868
  32.340	     41.67	    18.634
  32.360	    133.33	    33.333
  32.380	     83.33	    26.352
  32.400	     41.67	    18.634
  32.420	     66.67	    23.570
  32.440	     58.33	    22.048
  32.460	    108.33	    30.046
  32.480	    116.67	    31.180
  32.500	     75.00	    25.000
  32.520	     50.00	    20.412
  32.540	    108.33	    30.046
  32.560	    108.33	    30.046
  32.580	     41.67	    18.634
  32.600	     50.00	    20.412
  32.620	    108.33	    30.046
  32.640	     58.33	    22.048
  32.660	    125.00	    32.275
  32.680	     58.33	    22.048
  32.700	    100.00	    28.868
  32.720	     83.33	    26.352
  32.740	     66.67	    23.570
  32.760	     58.33	    22.048
  32.780	     50.00	    20.412
  32.800	     58.33	    22.048
  32.820	     66.67	    23.570
  32.840	    116.67	    31.180
  32.860	     58.33	    22.048
  32.880	    108.33	    30.046
  32.900	     50.00	    20.412
  32.920	    116.67	    31.180
  32.940	     83.33	    26.352
  32.960	     91.67	    27.639
  32.980	    166.67	    37.268
  33.000	    141.67	    34.359
  33.020	    108.33	    30.046
  33.040	    125.00	    32.275
  33.060	    183.33	    39.087
  33.080	    175.00	    38.188
  33.100	    175.00	    38.188
  33.120	    183.33	    39.087
  33.140	    216.67	    42.492
  33.160	    250.00	    45.644
  33.180	    183.33	    39.087
  33.200	    166.67	    37.268
  33.220	    258.33	    46.398
  33.240	    191.67	    39.965
  33.260	    175.00	    38.188
  33.280	    200.00	    40.825
  33.300	    100.00	    28.868
  33.320	    183.33	    39.087
  33.340	     91.67	    27.639
  33.360	    116.67	    31.180
  33.380	    133.33	    33.333
  33.400	    116.67	    31.180
  33.420	    158.33	    36.324
  33.440	    141.67	    34.359
  33.460	    133.33	    33.333
  33.480	    108.33	    30.046
  33.500	     91.67	    27.639
  33.520	     83.33	    26.352
  33.540	    100.00	    28.868
  33.560	    116.67	    31.180
  33.580	    125.00	    32.275
  33.600	    241.67	    44.876
  33.620	    225.00	    43.301
  33.640	    241.67	    44.876
  33.660	    275.00	    47.871
  33.680	    125.00	    32.275
  33.700	    283.33	    48.591
  33.720	    383.33	    56.519
  33.740	    308.33	    50.690
  33.760	    433.33	    60.093
  33.780	    400.00	    57.735
  33.800	    325.00	    52.042
  33.820	    358.33	    54.645
  33.840	    341.67	    53.359
  33.860	    241.67	    44.876
  33.880	    183.33	    39.087
  33.900	    200.00	    40.825
  33.920	    208.33	    41.667
  33.940	    158.33	    36.324
  33.960	    141.67	    34.359
  33.980	    133.33	    33.333
  34.000	    166.67	    37.268
  34.020	     83.33	    26.352
  34.040	     91.67	    27.639
  34.060	     58.33	    22.048
  34.080	     91.67	    27.639
  34.100	     58.33	    22.048
  34.120	     25.00	    14.434
  34.140	     66.67	    23.570
  34.160	     75.00	    25.000
  34.180	    141.67	    34.359
  34.200	    108.33	    30.046
  34.220	     50.00	    20.412
  34.240	     58.33	    22.048
  34.260	     33.33	    16.667
  34.280	    116.67	    31.180
  34.300	     25.00	    14.434
  34.320	     58.33	    22.048
  34.340	     50.00	    20.412
  34.360	     66.67	    23.570
  34.380	    108.33	    30.046
  34.400	    100.00	    28.868
  34.420	    108.33	    30.046
  34.440	    100.00	    28.868
  34.460	     33.33	    16.667
  34.480	     58.33	    22.048
  34.500	     75.00	    25.000
  34.520	     91.67	    27.639
  34.540	     83.33	    26.352
  34.560	     75.00	    25.000
  34.580	    116.67	    31.180
  34.600	     66.67	    23.570
  34.620	     91.67	    27.639
  34.640	     50.00	    20.412
  34.660	     75.00	    25.000
  34.680	     41.67	    18.634
  34.700	     58.33	    22.048
  34.720	     75.00	    25.000
  34.740	     75.00	    25.000
  34.760	     58.33	    22.048
  34.780	     41.67	    18.634
  34.800	     66.67	    23.570
  34.820	     66.67	    23.570
  34.840	    133.33	    33.333
  34.860	     83.33	    26.352
  34.880	     91.67	    27.639
  34.900	     91.67	    27.639
  34.920	     50.00	    20.412
  34.940	     66.67	    23.570
  34.960	     66.67	    23.570
  34.980	     75.00	    25.000
  35.000	    125.00	    32.275
  35.020	     75.00	    25.000
  35.040	     58.33	    22.048
  35.060	     66.67	    23.570
  35.080	     66.67	    23.570
  35.100	     83.33	    26.352
  35.120	     50.00	    20.412
  35.140	     58.33	    22.048
  35.160	     58.33	    22.048
  35.180	     66.67	    23.570
  35.200	     50.00	    20.412
  35.220	     83.33	    26.352
  35.240	     66.67	    23.570
  35.260	     66.67	    23.570
  35.280	     33.33	    16.667
  35.300	    100.00	    28.868
  35.320	    108.33	    30.046
  35.340	     91.67	    27.639
  35.360	    108.33	    30.046
  35.380	    133.33	    33.333
  35.400	     83.33	    26.352
  35.420	    108.33	    30.046
  35.440	    158.33	    36.324
  35.460	    141.67	    34.359
  35.480	    158.33	    36.324
  35.500	    108.33	    30.046
  35.520	    241.67	    44.876
  35.540	    175.00	    38.188
  35.560	    183.33	    39.087
  35.580	    158.33	    36.324
  35.600	    116.67	    31.180
  35.620	    133.33	    33.333
  35.640	    125.00	    32.275
  35.660	     91.67	    27.639
  35.680	    125.00	    32.275
  35.700	     41.67	    18.634
  35.720	     83.33	    26.352
  35.740	     83.33	    26.352
  35.760	     75.00	    25.000
  35.780	     16.67	    11.785
  35.800	    108.33	    30.046
  35.820	     25.00	    14.434
  35.840	     83.33	    26.352
  35.860	     41.67	    18.634
  35.880	     75.00	    25.000
  35.900	     66.67	    23.570
  35.920	     50.00	    20.412
  35.940	     58.33	    22.048
  35.960	     83.33	    26.352
  35.980	     41.67	    18.634
  36.000	     50.00	    20.412
  36.020	     41.67	    18.634
  36.040	     75.00	    25.000
  36.060	     58.33	    22.048
  36.080	     58.33	    22.048
  36.100	     33.33	    16.667
  36.120	     58.33	    22.048
  36.140	     33.33	    16.667
  36.160	     41.67	    18.634
  36.180	     66.67	    23.570
  36.200	     33.33	    16.667
  36.220	     75.00	    25.000
  36.240	     75.00	    25.000
  36.260	     91.67	    27.639
  36.280	     50.00	    20.412
  36.300	     83.33	    26.352
  36.320	     33.33	    16.667
  36.340	     75.00	    25.000
  36.360	     58.33	    22.048
  36.380	     33.33	    16.667
  36.400	     91.67	    27.639
  36.420	     83.33	    26.352
  36.440	     50.00	    20.412
  36.460	     41.67	    18.634
  36.480	     16.67	    11.785
  36.500	     25.00	    14.434
  36.520	     58.33	    22.048
  36.540	     25.00	    14.434
  36.560	     58.33	    22.048
  36.580	    108.33	    30.046
  36.600	     41.67	    18.634
  36.620	     83.33	    26.352
  36.640	     41.67	    18.634
  36.660	     75.00	    25.000
  36.680	     66.67	    23.570
  36.700	     41.67	    18.634
  36.720	     83.33	    26.352
  36.740	     83.33	    26.352
  36.760	     50.00	    20.412
  36.780	     75.00	    25.000
  36.800	     66.67	    23.570
  36.820	     83.33	    26.352
  36.840	     41.67	    18.634
  36.860	     33.33	    16.667
  36.880	     58.33	    22.048
  36.900	     41.67	    18.634
  36.920	     50.00	    20.412
  36.940	     58.33	    22.048
  36.960	     25.00	    14.434
  36.980	     16.67	    11.785
  37.000	     75.00	    25.000
  37.020	     16.67	    11.785
  37.040	     50.00	    20.412
  37.060	     91.67	    27.639
  37.080	     58.33	    22.048
  37.100	     25.00	    14.434
  37.120	     50.00	    20.412
  37.140	     91.67	    27.639
  37.160	     58.33	    22.048
  37.180	     25.00	    14.434
  37.200	     41.67	    18.634
  37.220	     75.00	    25.000
  37.240	     66.67	    23.570
  37.260	    116.67	    31.180
  37.280	     91.67	    27.639
  37.300	     41.67	    18.634
  37.320	     33.33	    16.667
  37.340	     41.67	    18.634
  37.360	     33.33	    16.667
  37.380	     66.67	    23.570
  37.400	     83.33	    26.352
  37.420	     41.67	    18.634
  37.440	     41.67	    18.634
  37.460	     83.33	    26.352
  37.480	     33.33	    16.667
  37.500	     33.33	    16.667
  37.520	     75.00	    25.000
  37.540	     75.00	    25.000
  37.560	     83.33	    26.352
  37.580	     25.00	    14.434
  37.600	     83.33	    26.352
  37.620	     33.33	    16.667
  37.640	     33.33	    16.667
  37.660	     50.00	    20.412
  37.680	    108.33	    30.046
  37.700	     75.00	    25.000
  37.720	     66.67	    23.570
  37.740	    100.00	    28.868
  37.760	     58.33	    22.048
  37.780	     16.67	    11.785
  37.800	     25.00	    14.434
  37.820	     83.33	    26.352
  37.840	     50.00	    20.412
  37.860	    100.00	    28.868
  37.880	     83.33	    26.352
  37.900	     41.67	    18.634
  37.920	     75.00	    25.000
  37.940	     41.67	    18.634
  37.960	     83.33	    26.352
  37.980	     33.33	    16.667
  38.000	     83.33	    26.352
  38.020	     58.33	    22.048
  38.040	     25.00	    14.434
  38.060	     66.67	    23.570
  38.080	     58.33	    22.048
  38.100	     91.67	    27.639
  38.120	     58.33	    22.048
  38.140	     58.33	    22.048
  38.160	    108.33	    30.046
  38.180	     58.33	    22.048
  38.200	     58.33	    22.048
  38.220	     33.33	    16.667
  38.240	     50.00	    20.412
  38.260	     50.00	    20.412
  38.280	     50.00	    20.412
  38.300	     91.67	    27.639
  38.320	     25.00	    14.434
  38.340	     91.67	    27.639
  38.360	     75.00	    25.000
  38.380	     50.00	    20.412
  38.400	    125.00	    32.275
  38.420	     58.33	    22.048
  38.440	    108.33	    30.046
  38.460	     83.33	    26.352
  38.480	    133.33	    33.333
  38.500	    100.00	    28.868
  38.520	    241.67	    44.876
  38.540	    116.67	    31.180
  38.560	    150.00	    35.355
  38.580	     83.33	    26.352
  38.600	    175.00	    38.188
  38.620	    133.33	    33.333
  38.640	    175.00	    38.188
  38.660	    125.00	    32.275
  38.680	    183.33	    39.087
  38.700	    100.00	    28.868
  38.720	    150.00	    35.355
  38.740	    208.33	    41.667
  38.760	    125.00	    32.275
  38.780	    208.33	    41.667
  38.800	    225.00	    43.301
  38.820	    225.00	    43.301
  38.840	    250.00	    45.644
  38.860	    241.67	    44.876
  38.880	    250.00	    45.644
  38.900	    408.33	    58.333
  38.920	    341.67	    53.359
  38.940	    533.33	    66.667
  38.960	    475.00	    62.915
  38.980	    650.00	    73.598
  39.000	    725.00	    77.728
  39.020	    591.67	    70.218
  39.040	    433.33	    60.093
  39.060	    483.33	    63.465
  39.080	    425.00	    59.512
  39.100	    391.67	    57.130
  39.120	    291.67	    49.301
  39.140	    250.00	    45.644
  39.160	    283.33	    48.591
  39.180	    158.33	    36.324
  39.200	    183.33	    39.087
  39.220	    150.00	    35.355
  39.240	    133.33	    33.333
  39.260	    166.67	    37.268
  39.280	     91.67	    27.639
  39.300	    133.33	    33.333
  39.320	     66.67	    23.570
  39.340	    116.67	    31.180
  39.360	    108.33	    30.046
  39.380	     58.33	    22.048
  39.400	    108.33	    30.046
  39.420	    125.00	    32.275
  39.440	    108.33	    30.046
  39.460	    100.00	    28.868
  39.480	    100.00	    28.868
  39.500	    141.67	    34.359
  39.520	    133.33	    33.333
  39.540	     50.00	    20.412
  39.560	    141.67	    34.359
  39.580	    133.33	    33.333
  39.600	    241.67	    44.876
  39.620	    166.67	    37.268
  39.640	    150.00	    35.355
  39.660	    141.67	    34.359
  39.680	    150.00	    35.355
  39.700	    166.67	    37.268
  39.720	    216.67	    42.492
  39.740	    158.33	    36.324
  39.760	    125.00	    32.275
  39.780	    141.67	    34.359
  39.800	    116.67	    31.180
  39.820	    158.33	    36.324
  39.840	    141.67	    34.359
  39.860	    116.67	    31.180
  39.880	    116.67	    31.180
  39.900	     75.00	    25.000
  39.920	    166.67	    37.268
  39.940	     83.33	    26.352
  39.960	    108.33	    30.046
  39.980	     91.67	    27.639
  40.000	     66.67	    23.570
  40.020	     50.00	    20.412
  40.040	     66.67	    23.570
  40.060	     91.67	    27.639
  40.080	     41.67	    18.634
  40.100	    100.00	    28.868
  40.120	     91.67	    27.639
  40.140	     66.67	    23.570
  40.160	     50.00	    20.412
  40.180	     75.00	    25.000
  40.200	     41.67	    18.634
  40.220	     50.00	    20.412
  40.240	     75.00	    25.000
  40.260	     50.00	    20.412
  40.280	     75.00	    25.000
  40.300	     66.67	    23.570
  40.320	     66.67	    23.570
  40.340	     75.00	    25.000
  40.360	     33.33	    16.667
  40.380	     58.33	    22.048
  40.400	     16.67	    11.785
  40.420	     91.67	    27.639
  40.440	     33.33	    16.667
  40.460	     50.00	    20.412
  40.480	     50.00	    20.412
  40.500	     75.00	    25.000
  40.520	     41.67	    18.634
  40.540	     58.33	    22.048
  40.560	     58.33	    22.048
  40.580	     66.67	    23.570
  40.600	     58.33	    22.048
  40.620	     66.67	    23.570
  40.640	     83.33	    26.352
  40.660	     75.00	    25.000
  40.680	     33.33	    16.667
  40.700	     41.67	    18.634
  40.720	     33.33	    16.667
  40.740	     83.33	    26.352
  40.760	     50.00	    20.412
  40.780	     41.67	    18.634
  40.800	     50.00	    20.412
  40.820	     50.00	    20.412
  40.840	     75.00	    25.000
  40.860	     66.67	    23.570
  40.880	     25.00	    14.434
  40.900	     58.33	    22.048
  40.920	     50.00	    20.412
  40.940	     66.67	    23.570
  40.960	     58.33	    22.048
  40.980	     66.67	    23.570
  41.000	     50.00	    20.412
  41.020	     91.67	    27.639
  41.040	     83.33	    26.352
  41.060	     16.67	    11.785
  41.080	     91.67	    27.639
  41.100	     50.00	    20.412
  41.120	     33.33	    16.667
  41.140	     41.67	    18.634
  41.160	     25.00	    14.434
  41.180	     75.00	    25.000
  41.200	     50.00	    20.412
  41.220	     58.33	    22.048
  41.240	     41.67	    18.634
  41.260	     91.67	    27.639
  41.280	     91.67	    27.639
  41.300	     41.67	    18.634
  41.320	     58.33	    22.048
  41.340	     83.33	    26.352
  41.360	     58.33	    22.048
  41.380	     50.00	    20.412
  41.400	     33.33	    16.667
  41.420	     41.67	    18.634
  41.440	     66.67	    23.570
  41.460	     25.00	    14.434
  41.480	     25.00	    14.434
  41.500	      8.33	     8.333
  41.520	     50.00	    20.412
  41.540	     41.67	    18.634
  41.560	     25.00	    14.434
  41.580	     50.00	    20.412
  41.600	     75.00	    25.000
  41.620	     50.00	    20.412
  41.640	     41.67	    18.634
  41.660	     75.00	    25.000
  41.680	     58.33	    22.048
  41.700	     83.33	    26.352
  41.720	     50.00	    20.412
  41.740	     75.00	    25.000
  41.760	     66.67	    23.570
  41.780	     91.67	    27.639
  41.800	     83.33	    26.352
  41.820	     66.67	    23.570
  41.840	     50.00	    20.412
  41.860	     25.00	    14.434
  41.880	     41.67	    18.634
  41.900	     33.33	    16.667
  41.920	     66.67	    23.570
  41.940	     58.33	    22.048
  41.960	     50.00	    20.412
  41.980	     91.67	    27.639
  42.000	     50.00	    20.412
  42.020	     66.67	    23.570
  42.040	     58.33	    22.048
  42.060	     58.33	    22.048
  42.080	     83.33	    26.352
  42.100	     75.00	    25.000
  42.120	     75.00	    25.000
  42.140	    108.33	    30.046
  42.160	     50.00	    20.412
  42.180	     33.33	    16.667
  42.200	     75.00	    25.000
  42.220	     83.33	    26.352
  42.240	     66.67	    23.570
  42.260	     41.67	    18.634
  42.280	     91.67	    27.639
  42.300	     41.67	    18.634
  42.320	     41.67	    18.634
  42.340	     50.00	    20.412
  42.360	    100.00	    28.868
  42.380	     33.33	    16.667
  42.400	     91.67	    27.639
  42.420	    100.00	    28.868
  42.440	     41.67	    18.634
  42.460	     66.67	    23.570
  42.480	     75.00	    25.000
  42.500	     41.67	    18.634
  42.520	     91.67	    27.639
  42.540	     91.67	    27.639
  42.560	     50.00	    20.412
  42.580	     58.33	    22.048
  42.600	     33.33	    16.667
  42.620	     58.33	    22.048
  42.640	     41.67	    18.634
  42.660	     50.00	    20.412
  42.680	     50.00	    20.412
  42.700	     25.00	    14.434
  42.720	     41.67	    18.634
  42.740	     25.00	    14.434
  42.760	     33.33	    16.667
  42.780	     58.33	    22.048
  42.800	     66.67	    23.570
  42.820	    116.67	    31.180
  42.840	     91.67	    27.639
  42.860	     41.67	    18.634
  42.880	     50.00	    20.412
  42.900	     58.33	    22.048
  42.920	     41.67	    18.634
  42.940	     75.00	    25.000
  42.960	     58.33	    22.048
  42.980	     66.67	    23.570
  43.000	     33.33	    16.667
  43.020	     50.00	    20.412
  43.040	     75.00	    25.000
  43.060	     50.00	    20.412
  43.080	     25.00	    14.434
  43.100	     33.33	    16.667
  43.120	     58.33	    22.048
  43.140	     41.67	    18.634
  43.160	     75.00	    25.000
  43.180	     50.00	    20.412
  43.200	     50.00	    20.412
  43.220	     66.67	    23.570
  43.240	     41.67	    18.634
  43.260	     50.00	    20.412
  43.280	     75.00	    25.000
  43.300	     41.67	    18.634
  43.320	     58.33	    22.048
  43.340	     41.67	    18.634
  43.360	     75.00	    25.000
  43.380	     25.00	    14.434
  43.400	     33.33	    16.667
  43.420	     75.00	    25.000
  43.440	     75.00	    25.000
  43.460	     58.33	    22.048
  43.480	     50.00	    20.412
  43.500	     25.00	    14.434
  43.520	     25.00	    14.434
  43.540	     83.33	    26.352
  43.560	     58.33	    22.048
  43.580	     25.00	    14.434
  43.600	     16.67	    11.785
  43.620	     33.33	    16.667
  43.640	     58.33	    22.048
  43.660	     66.67	    23.570
  43.680	     50.00	    20.412
  43.700	     75.00	    25.000
  43.720	     66.67	    23.570
  43.740	     33.33	    16.667
  43.760	     66.67	    23.570
  43.780	     83.33	    26.352
  43.800	    100.00	    28.868
  43.820	     75.00	    25.000
  43.840	     33.33	    16.667
  43.860	     41.67	    18.634
  43.880	     50.00	    20.412
  43.900	     41.67	    18.634
  43.920	     50.00	    20.412
  43.940	     50.00	    20.412
  43.960	     33.33	    16.667
  43.980	     50.00	    20.412
  44.000	    116.67	    31.180
  44.020	    100.00	    28.868
  44.040	     58.33	    22.048
  44.060	     41.67	    18.634
  44.080	     50.00	    20.412
  44.100	     50.00	    20.412
  44.120	     16.67	    11.785
  44.140	     41.67	    18.634
  44.160	     33.33	    16.667
  44.180	     83.33	    26.352
  44.200	     16.67	    11.785
  44.220	     50.00	    20.412
  44.240	     50.00	    20.412
  44.260	     41.67	    18.634
  44.280	    100.00	    28.868
  44.300	     75.00	    25.000
  44.320	     33.33	    16.667
  44.340	     41.67	    18.634
  44.360	     41.67	    18.634
  44.380	     58.33	    22.048
  44.400	     41.67	    18.634
  44.420	     33.33	    16.667
  44.440	     50.00	    20.412
  44.460	     41.67	    18.634
  44.480	     66.67	    23.570
  44.500	     41.67	    18.634
  44.520	     50.00	    20.412
  44.540	     33.33	    16.667
  44.560	     58.33	    22.048
  44.580	     41.67	    18.634
  44.600	     50.00	    20.412
  44.620	     75.00	    25.000
  44.640	     25.00	    14.434
  44.660	     33.33	    16.667
  44.680	     58.33	    22.048
  44.700	     58.33	    22.048
  44.720	     58.33	    22.048
  44.740	     41.67	    18.634
  44.760	     33.33	    16.667
  44.780	     91.67	    27.639
  44.800	     25.00	    14.434
  44.820	     58.33	    22.048
  44.840	     33.33	    16.667
  44.860	     58.33	    22.048
  44.880	     41.67	    18.634
  44.900	     41.67	    18.634
  44.920	     33.33	    16.667
  44.940	     75.00	    25.000
  44.960	     16.67	    11.785
  44.980	     75.00	    25.000
  45.000	     91.67	    27.639
  45.020	     50.00	    20.412
  45.040	     41.67	    18.634
  45.060	     50.00	    20.412
  45.080	     33.33	    16.667
  45.100	     50.00	    20.412
  45.120	    100.00	    28.868
  45.140	     66.67	    23.570
  45.160	     41.67	    18.634
  45.180	     16.67	    11.785
  45.200	     41.67	    18.634
  45.220	     50.00	    20.412
  45.240	     83.33	    26.352
  45.260	     33.33	    16.667
  45.280	     58.33	    22.048
  45.300	     25.00	    14.434
  45.320	     58.33	    22.048
  45.340	     41.67	    18.634
  45.360	     50.00	    20.412
  45.380	     41.67	    18.634
  45.400	     33.33	    16.667
  45.420	     25.00	    14.434
  45.440	     50.00	    20.412
  45.460	     66.67	    23.570
  45.480	     75.00	    25.000
  45.500	     66.67	    23.570
  45.520	     41.67	    18.634
  45.540	     58.33	    22.048
  45.560	     58.33	    22.048
  45.580	     66.67	    23.570
  45.600	    100.00	    28.868
  45.620	     58.33	    22.048
  45.640	     50.00	    20.412
  45.660	    125.00	    32.275
  45.680	    108.33	    30.046
  45.700	     58.33	    22.048
  45.720	    150.00	    35.355
  45.740	    166.67	    37.268
  45.760	    183.33	    39.087
  45.780	    166.67	    37.268
  45.800	    150.00	    35.355
  45.820	    158.33	    36.324
  45.840	    241.67	    44.876
  45.860	    133.33	    33.333
  45.880	    166.67	    37.268
  45.900	    183.33	    39.087
  45.920	    100.00	    28.868
  45.940	    158.33	    36.324
  45.960	    125.00	    32.275
  45.980	    141.67	    34.359
  46.000	    116.67	    31.180
  46.020	    125.00	    32.275
  46.040	     75.00	    25.000
  46.060	    133.33	    33.333
  46.080	     75.00	    25.000
  46.100	    116.67	    31.180
  46.120	     83.33	    26.352
  46.140	    100.00	    28.868
  46.160	    108.33	    30.046
  46.180	    133.33	    33.333
  46.200	    175.00	    38.188
  46.220	    166.67	    37.268
  46.240	    191.67	    39.965
  46.260	    191.67	    39.965
  46.280	    175.00	    38.188
  46.300	    258.33	    46.398
  46.320	    233.33	    44.096
  46.340	    266.67	    47.140
  46.360	    291.67	    49.301
  46.380	    275.00	    47.871
  46.400	    191.67	    39.965
  46.420	    175.00	    38.188
  46.440	    233.33	    44.096
  46.460	    175.00	    38.188
  46.480	    150.00	    35.355
  46.500	    125.00	    32.275
  46.520	    191.67	    39.965
  46.540	    116.67	    31.180
  46.560	     91.67	    27.639
  46.580	     91.67	    27.639
  46.600	    100.00	    28.868
  46.620	     91.67	    27.639
  46.640	     75.00	    25.000
  46.660	     91.67	    27.639
  46.680	     50.00	    20.412
  46.700	    125.00	    32.275
  46.720	     83.33	    26.352
  46.740	     41.67	    18.634
  46.760	     16.67	    11.785
  46.780	     75.00	    25.000
  46.800	     66.67	    23.570
  46.820	     58.33	    22.048
  46.840	     75.00	    25.000
  46.860	     58.33	    22.048
  46.880	     66.67	    23.570
  46.900	     25.00	    14.434
  46.920	     83.33	    26.352
  46.940	     58.33	    22.048
  46.960	     25.00	    14.434
  46.980	     58.33	    22.048
  47.000	     50.00	    20.412
  47.020	     50.00	    20.412
  47.040	     41.67	    18.634
  47.060	     66.67	    23.570
  47.080	     41.67	    18.634
  47.100	     83.33	    26.352
  47.120	     75.00	    25.000
  47.140	     58.33	    22.048
  47.160	     66.67	    23.570
  47.180	     25.00	    14.434
  47.200	     50.00	    20.412
  47.220	     25.00	    14.434
  47.240	     33.33	    16.667
  47.260	     58.33	    22.048
  47.280	     66.67	    23.570
  47.300	     58.33	    22.048
  47.320	     50.00	    20.412
  47.340	     33.33	    16.667
  47.360	    100.00	    28.868
  47.380	     58.33	    22.048
  47.400	     16.67	    11.785
  47.420	     25.00	    14.434
  47.440	     50.00	    20.412
  47.460	     25.00	    14.434
  47.480	     33.33	    16.667
  47.500	     58.33	    22.048
  47.520	     33.33	    16.667
  47.540	     41.67	    18.634
  47.560	     41.67	    18.634
  47.580	     66.67	    23.570
  47.600	     41.67	    18.634
  47.620	     91.67	    27.639
  47.640	     33.33	    16.667
  47.660	     33.33	    16.667
  47.680	     25.00	    14.434
  47.700	     33.33	    16.667
  47.720	     58.33	    22.048
  47.740	     33.33	    16.667
  47.760	     75.00	    25.000
  47.780	     58.33	    22.048
  47.800	     75.00	    25.000
  47.820	     58.33	    22.048
  47.840	     33.33	    16.667
  47.860	     41.67	    18.634
  47.880	     41.67	    18.634
  47.900	     75.00	    25.000
  47.920	    100.00	    28.868
  47.940	     41.67	    18.634
  47.960	     83.33	    26.352
  47.980	     83.33	    26.352
  48.000	     50.00	    20.412
  48.020	     25.00	    14.434
  48.040	     50.00	    20.412
  48.060	     50.00	    20.412
  48.080	     25.00	    14.434
  48.100	     58.33	    22.048
  48.120	     75.00	    25.000
  48.140	     66.67	    23.570
  48.160	     33.33	    16.667
  48.180	     66.67	    23.570
  48.200	     75.00	    25.000
  48.220	     16.67	    11.785
  48.240	     58.33	    22.048
  48.260	     33.33	    16.667
  48.280	     33.33	    16.667
  48.300	     58.33	    22.048
  48.320	     75.00	    25.000
  48.340	     75.00	    25.000
  48.360	     50.00	    20.412
  48.380	     33.33	    16.667
  48.400	     83.33	    26.352
  48.420	     41.67	    18.634
  48.440	     66.67	    23.570
  48.460	     50.00	    20.412
  48.480	     25.00	    14.434
  48.500	     50.00	    20.412
  48.520	     25.00	    14.434
  48.540	     41.67	    18.634
  48.560	     50.00	    20.412
  48.580	     50.00	    20.412
  48.600	     33.33	    16.667
  48.620	     41.67	    18.634
  48.640	     50.00	    20.412
  48.660	     58.33	    22.048
  48.680	     25.00	    14.434
  48.700	     33.33	    16.667
  48.720	     91.67	    27.639
  48.740	     50.00	    20.412
  48.760	     41.67	    18.634
  48.780	     33.33	    16.667
  48.800	     50.00	    20.412
  48.820	     33.33	    16.667
  48.840	     58.33	    22.048
  48.860	     66.67	    23.570
  48.880	     33.33	    16.667
  48.900	     66.67	    23.570
  48.920	     66.67	    23.570
  48.940	     58.33	    22.048
  48.960	     25.00	    14.434
  48.980	     50.00	    20.412
  49.000	     58.33	    22.048
  49.020	     58.33	    22.048
  49.040	    100.00	    28.868
  49.060	     33.33	    16.667
  49.080	     41.67	    18.634
  49.100	     33.33	    16.667
  49.120	    108.33	    30.046
  49.140	    100.00	    28.868
  49.160	    125.00	    32.275
  49.180	    183.33	    39.087
  49.200	    158.33	    36.324
  49.220	    233.33	    44.096
  49.240	    250.00	    45.644
  49.260	    258.33	    46.398
  49.280	    383.33	    56.519
  49.300	    383.33	    56.519
  49.320	    208.33	    41.667
  49.340	    333.33	    52.705
  49.360	    216.67	    42.492
  49.380	    216.67	    42.492
  49.400	    225.00	    43.301
  49.420	    175.00	    38.188
  49.440	    191.67	    39.965
  49.460	    183.33	    39.087
  49.480	    175.00	    38.188
  49.500	    133.33	    33.333
  49.520	     75.00	    25.000
  49.540	     66.67	    23.570
  49.560	     75.00	    25.000
  49.580	     50.00	    20.412
  49.600	     33.33	    16.667
  49.620	     16.67	    11.785
  49.640	     91.67	    27.639
  49.660	     33.33	    16.667
  49.680	     41.67	    18.634
  49.700	     58.33	    22.048
  49.720	     75.00	    25.000
  49.740	     58.33	    22.048
  49.760	     58.33	    22.048
  49.780	     50.00	    20.412
  49.800	     83.33	    26.352
  49.820	     91.67	    27.639
  49.840	     41.67	    18.634
  49.860	     91.67	    27.639
  49.880	     50.00	    20.412
  49.900	     66.67	    23.570
  49.920	     66.67	    23.570
  49.940	    125.00	    32.275
  49.960	     83.33	    26.352
  49.980	    108.33	    30.046
  50.000	    100.00	    28.868
  50.020	     83.33	    26.352
  50.040	    108.33	    30.046
  50.060	     91.67	    27.639
  50.080	     75.00	    25.000
  50.100	     58.33	    22.048
  50.120	     66.67	    23.570
  50.140	     58.33	    22.048
  50.160	     50.00	    20.412
  50.180	     91.67	    27.639
  50.200	    133.33	    33.333
  50.220	     83.33	    26.352
  50.240	     83.33	    26.352
  50.260	     83.33	    26.352
  50.280	    100.00	    28.868
  50.300	     91.67	    27.639
  50.320	     33.33	    16.667
  50.340	     41.67	    18.634
  50.360	     75.00	    25.000
  50.380	     75.00	    25.000
  50.400	     75.00	    25.000
  50.420	     91.67	    27.639
  50.440	     58.33	    22.048
  50.460	     50.00	    20.412
  50.480	     50.00	    20.412
  50.500	    108.33	    30.046
  50.520	     41.67	    18.634
  50.540	     41.67	    18.634
  50.560	     83.33	    26.352
  50.580	     50.00	    20.412
  50.600	     83.33	    26.352
  50.620	     75.00	    25.000
  50.640	     66.67	    23.570
  50.660	     58.33	    22.048
  50.680	     58.33	    22.048
  50.700	     58.33	    22.048
  50.720	     58.33	    22.048
  50.740	     25.00	    14.434
  50.760	     50.00	    20.412
  50.780	     50.00	    20.412
  50.800	     66.67	    23.570
  50.820	     75.00	    25.000
  50.840	     58.33	    22.048
  50.860	     16.67	    11.785
  50.880	     66.67	    23.570
  50.900	     41.67	    18.634
  50.920	     33.33	    16.667
  50.940	     66.67	    23.570
  50.960	     41.67	    18.634
  50.980	    116.67	    31.180
  51.000	     50.00	    20.412
  51.020	     91.67	    27.639
  51.040	     75.00	    25.000
  51.060	     66.67	    23.570
  51.080	    125.00	    32.275
  51.100	     58.33	    22.048
  51.120	     41.67	    18.634
  51.140	    108.33	    30.046
  51.160	     58.33	    22.048
  51.180	    133.33	    33.333
  51.200	     75.00	    25.000
  51.220	     58.33	    22.048
  51.240	     75.00	    25.000
  51.260	     66.67	    23.570
  51.280	     83.33	    26.352
  51.300	     75.00	    25.000
  51.320	     58.33	    22.048
  51.340	     58.33	    22.048
  51.360	     50.00	    20.412
  51.380	     33.33	    16.667
  51.400	     41.67	    18.634
  51.420	     33.33	    16.667
  51.440	     58.33	    22.048
  51.460	     33.33	    16.667
  51.480	     66.67	    23.570
  51.500	     58.33	    22.048
  51.520	     83.33	    26.352
  51.540	     41.67	    18.634
  51.560	     75.00	    25.000
  51.580	     91.67	    27.639
  51.600	     33.33	    16.667
  51.620	     66.67	    23.570
  51.640	     41.67	    18.634
  51.660	     66.67	    23.570
  51.680	     58.33	    22.048
  51.700	     75.00	    25.000
  51.720	     50.00	    20.412
  51.740	    100.00	    28.868
  51.760	     91.67	    27.639
  51.780	     50.00	    20.412
  51.800	     91.67	    27.639
  51.820	     66.67	    23.570
  51.840	     91.67	    27.639
  51.860	     66.67	    23.570
  51.880	     33.33	    16.667
  51.900	     25.00	    14.434
  51.920	     58.33	    22.048
  51.940	     58.33	    22.048
  51.960	     66.67	    23.570
  51.980	     91.67	    27.639
  52.000	     75.00	    25.000
  52.020	     66.67	    23.570
  52.040	     33.33	    16.667
  52.060	     58.33	    22.048
  52.080	     83.33	    26.352
  52.100	     41.67	    18.634
  52.120	     66.67	    23.570
  52.140	     50.00	    20.412
  52.160	     66.67	    23.570
  52.180	     66.67	    23.570
  52.200	     50.00	    20.412
  52.220	    100.00	    28.868
  52.240	     33.33	    16.667
  52.260	     91.67	    27.639
  52.280	     66.67	    23.570
  52.300	     50.00	    20.412
  52.320	     66.67	    23.570
  52.340	     66.67	    23.570
  52.360	     75.00	    25.000
  52.380	     41.67	    18.634
  52.400	     75.00	    25.000
  52.420	     91.67	    27.639
  52.440	     41.67	    18.634
  52.460	    133.33	    33.333
  52.480	    125.00	    32.275
  52.500	    108.33	    30.046
  52.520	     33.33	    16.667
  52.540	     83.33	    26.352
  52.560	     50.00	    20.412
  52.580	     75.00	    25.000
  52.600	     91.67	    27.639
  52.620	    100.00	    28.868
  52.640	    166.67	    37.268
  52.660	    108.33	    30.046
  52.680	     66.67	    23.570
  52.700	    150.00	    35.355
  52.720	    116.67	    31.180
  52.740	     83.33	    26.352
  52.760	    133.33	    33.333
  52.780	    133.33	    33.333
  52.800	    141.67	    34.359
  52.820	    183.33	    39.087
  52.840	    133.33	    33.333
  52.860	    191.67	    39.965
  52.880	    175.00	    38.188
  52.900	    150.00	    35.355
  52.920	    141.67	    34.359
  52.940	    100.00	    28.868
  52.960	    125.00	    32.275
  52.980	     75.00	    25.000
  53.000	    191.67	    39.965
  53.020	    175.00	    38.188
  53.040	    116.67	    31.180
  53.060	    150.00	    35.355
  53.080	     66.67	    23.570
  53.100	     66.67	    23.570
  53.120	    116.67	    31.180
  53.140	    108.33	    30.046
  53.160	     75.00	    25.000
  53.180	     50.00	    20.412
  53.200	     91.67	    27.639
  53.220	    116.67	    31.180
  53.240	     83.33	    26.352
  53.260	     75.00	    25.000
  53.280	     83.33	    26.352
  53.300	     58.33	    22.048
  53.320	    100.00	    28.868
  53.340	     58.33	    22.048
  53.360	     75.00	    25.000
  53.380	     66.67	    23.570
  53.400	     58.33	    22.048
  53.420	      8.33	     8.333
  53.440	     33.33	    16.667
  53.460	     41.67	    18.634
  53.480	     25.00	    14.434
  53.500	     58.33	    22.048
  53.520	     50.00	    20.412
  53.540	     41.67	    18.634
  53.560	     33.33	    16.667
  53.580	     41.67	    18.634
  53.600	     75.00	    25.000
  53.620	     91.67	    27.639
  53.640	     83.33	    26.352
  53.660	     41.67	    18.634
  53.680	     91.67	    27.639
  53.700	     50.00	    20.412
  53.720	     41.67	    18.634
  53.740	     50.00	    20.412
  53.760	     58.33	    22.048
  53.780	     41.67	    18.634
  53.800	     33.33	    16.667
  53.820	     50.00	    20.412
  53.840	     25.00	    14.434
  53.860	     58.33	    22.048
  53.880	     75.00	    25.000
  53.900	     33.33	    16.667
  53.920	     75.00	    25.000
  53.940	     66.67	    23.570
  53.960	     58.33	    22.048
  53.980	     83.33	    26.352
  54.000	     58.33	    22.048
  54.020	     75.00	    25.000
  54.040	    116.67	    31.180
  54.060	     83.33	    26.352
  54.080	     58.33	    22.048
  54.100	     83.33	    26.352
  54.120	    225.00	    43.301
  54.140	    133.33	    33.333
  54.160	     83.33	    26.352
  54.180	     66.67	    23.570
  54.200	     66.67	    23.570
  54.220	     91.67	    27.639
  54.240	    133.33	    33.333
  54.260	     58.33	    22.048
  54.280	     66.67	    23.570
  54.300	     41.67	    18.634
  54.320	     91.67	    27.639
  54.340	     66.67	    23.570
  54.360	     75.00	    25.000
  54.380	     75.00	    25.000
  54.400	     83.33	    26.352
  54.420	     50.00	    20.412
  54.440	     33.33	    16.667
  54.460	     25.00	    14.434
  54.480	     33.33	    16.667
  54.500	     58.33	    22.048
  54.520	     33.33	    16.667
  54.540	     33.33	    16.667
  54.560	     33.33	    16.667
  54.580	     33.33	    16.667
  54.600	     50.00	    20.412
  54.620	     33.33	    16.667
  54.640	     25.00	    14.434
  54.660	     75.00	    25.000
  54.680	     58.33	    22.048
  54.700	     16.67	    11.785
  54.720	      8.33	     8.333
  54.740	      8.33	     8.333
  54.760	     41.67	    18.634
  54.780	     41.67	    18.634
  54.800	     50.00	    20.412
  54.820	     75.00	    25.000
  54.840	     58.33	    22.048
  54.860	     50.00	    20.412
  54.880	     50.00	    20.412
  54.900	     41.67	    18.634
  54.920	     33.33	    16.667
  54.940	     50.00	    20.412
  54.960	     50.00	    20.412
  54.980	     33.33	    16.667
  55.000	     33.33	    16.667
  55.020	     16.67	    11.785
  55.040	     66.67	    23.570
  55.060	     50.00	    20.412
  55.080	     41.67	    18.634
  55.100	     50.00	    20.412
  55.120	    166.67	    37.268
  55.140	    175.00	    38.188
  55.160	    141.67	    34.359
  55.180	    258.33	    46.398
  55.200	    200.00	    40.825
  55.220	    175.00	    38.188
  55.240	    208.33	    41.667
  55.260	    258.33	    46.398
  55.280	    191.67	    39.965
  55.300	    225.00	    43.301
  55.320	    225.00	    43.301
  55.340	    208.33	    41.667
  55.360	    150.00	    35.355
  55.380	    108.33	    30.046
  55.400	    108.33	    30.046
  55.420	    108.33	    30.046
  55.440	     75.00	    25.000
  55.460	    108.33	    30.046
  55.480	     66.67	    23.570
  55.500	     83.33	    26.352
  55.520	     58.33	    22.048
  55.540	     66.67	    23.570
  55.560	     66.67	    23.570
  55.580	     75.00	    25.000
  55.600	     66.67	    23.570
  55.620	     75.00	    25.000
  55.640	     50.00	    20.412
  55.660	     58.33	    22.048
  55.680	     41.67	    18.634
  55.700	     58.33	    22.048
  55.720	     50.00	    20.412
  55.740	     75.00	    25.000
  55.760	     25.00	    14.434
  55.780	     75.00	    25.000
  55.800	     33.33	    16.667
  55.820	     50.00	    20.412
  55.840	     58.33	    22.048
  55.860	     50.00	    20.412
  55.880	     41.67	    18.634
  55.900	     91.67	    27.639
  55.920	     50.00	    20.412
  55.940	     66.67	    23.570
  55.960	     58.33	    22.048
  55.980	     58.33	    22.048
  56.000	     41.67	    18.634
  56.020	     33.33	    16.667
  56.040	    108.33	    30.046
  56.060	     33.33	    16.667
  56.080	     58.33	    22.048
  56.100	     66.67	    23.570
  56.120	     66.67	    23.570
  56.140	     50.00	    20.412
  56.160	     91.67	    27.639
  56.180	     58.33	    22.048
  56.200	     50.00	    20.412
  56.220	     83.33	    26.352
  56.240	     58.33	    22.048
  56.260	    116.67	    31.180
  56.280	     75.00	    25.000
  56.300	    100.00	    28.868
  56.320	    141.67	    34.359
  56.340	    166.67	    37.268
  56.360	    116.67	    31.180
  56.380	    175.00	    38.188
  56.400	    158.33	    36.324
  56.420	    200.00	    40.825
  56.440	    175.00	    38.188
  56.460	    183.33	    39.087
  56.480	    225.00	    43.301
  56.500	    141.67	    34.359
  56.520	    158.33	    36.324
  56.540	     91.67	    27.639
  56.560	    100.00	    28.868
  56.580	    100.00	    28.868
  56.600	    158.33	    36.324
  56.620	     83.33	    26.352
  56.640	    100.00	    28.868
  56.660	    125.00	    32.275
  56.680	    100.00	    28.868
  56.700	     83.33	    26.352
  56.720	    108.33	    30.046
  56.740	     75.00	    25.000
  56.760	     50.00	    20.412
  56.780	     91.67	    27.639
  56.800	    100.00	    28.868
  56.820	     58.33	    22.048
  56.840	     33.33	    16.667
  56.860	     50.00	    20.412
  56.880	     75.00	    25.000
  56.900	     16.67	    11.785
  56.920	    116.67	    31.180
  56.940	     58.33	    22.048
  56.960	     50.00	    20.412
  56.980	     41.67	    18.634
  57.000	     83.33	    26.352
  57.020	    100.00	    28.868
  57.040	     50.00	    20.412
  57.060	     66.67	    23.570
  57.080	     50.00	    20.412
  57.100	     66.67	    23.570
  57.120	     58.33	    22.048
  57.140	     91.67	    27.639
  57.160	     75.00	    25.000
  57.180	     50.00	    20.412
  57.200	    100.00	    28.868
  57.220	    108.33	    30.046
  57.240	     58.33	    22.048
  57.260	     41.67	    18.634
  57.280	     41.67	    18.634
  57.300	     50.00	    20.412
  57.320	    125.00	    32.275
  57.340	     83.33	    26.352
  57.360	    100.00	    28.868
  57.380	     50.00	    20.412
  57.400	     66.67	    23.570
  57.420	     75.00	    25.000
  57.440	    116.67	    31.180
  57.460	     58.33	    22.048
  57.480	     75.00	    25.000
  57.500	    125.00	    32.275
  57.520	    150.00	    35.355
  57.540	    100.00	    28.868
  57.560	    133.33	    33.333
  57.580	    125.00	    32.275
  57.600	    183.33	    39.087
  57.620	    166.67	    37.268
  57.640	    208.33	    41.667
  57.660	    166.67	    37.268
  57.680	    175.00	    38.188
  57.700	    166.67	    37.268
  57.720	    100.00	    28.868
  57.740	    141.67	    34.359
  57.760	    166.67	    37.268
  57.780	    158.33	    36.324
  57.800	    125.00	    32.275
  57.820	     91.67	    27.639
  57.840	    125.00	    32.275
  57.860	     91.67	    27.639
  57.880	     91.67	    27.639
  57.900	    108.33	    30.046
  57.920	     91.67	    27.639
  57.940	     83.33	    26.352
  57.960	    150.00	    35.355
  57.980	    116.67	    31.180
  58.000	    125.00	    32.275
  58.020	    108.33	    30.046
  58.040	     91.67	    27.639
  58.060	     91.67	    27.639
  58.080	    133.33	    33.333
  58.100	     83.33	    26.352
  58.120	    100.00	    28.868
  58.140	     58.33	    22.048
  58.160	    141.67	    34.359
  58.180	     75.00	    25.000
  58.200	    108.33	    30.046
  58.220	     91.67	    27.639
  58.240	     83.33	    26.352
  58.260	     75.00	    25.000
  58.280	    116.67	    31.180
  58.300	     83.33	    26.352
  58.320	     75.00	    25.000
  58.340	     91.67	    27.639
  58.360	     33.33	    16.667
  58.380	     83.33	    26.352
  58.400	     83.33	    26.352
  58.420	     91.67	    27.639
  58.440	     75.00	    25.000
  58.460	     83.33	    26.352
  58.480	     75.00	    25.000
  58.500	     83.33	    26.352
  58.520	     83.33	    26.352
  58.540	    125.00	    32.275
  58.560	    100.00	    28.868
  58.580	     58.33	    22.048
  58.600	     83.33	    26.352
  58.620	     91.67	    27.639
  58.640	    100.00	    28.868
  58.660	     66.67	    23.570
  58.680	    150.00	    35.355
  58.700	     91.67	    27.639
  58.720	    141.67	    34.359
  58.740	    116.67	    31.180
  58.760	    150.00	    35.355
  58.780	    141.67	    34.359
  58.800	    233.33	    44.096
  58.820	    258.33	    46.398
  58.840	    258.33	    46.398
  58.860	    325.00	    52.042
  58.880	    341.67	    53.359
  58.900	    300.00	    50.000
  58.920	    225.00	    43.301
  58.940	    183.33	    39.087
  58.960	    241.67	    44.876
  58.980	    208.33	    41.667
  59.000	    116.67	    31.180
  59.020	    116.67	    31.180
  59.040	    158.33	    36.324
  59.060	    216.67	    42.492
  59.080	     91.67	    27.639
  59.100	    183.33	    39.087
  59.120	    125.00	    32.275
  59.140	    108.33	    30.046
  59.160	     83.33	    26.352
  59.180	     33.33	    16.667
  59.200	     58.33	    22.048
  59.220	     58.33	    22.048
  59.240	     41.67	    18.634
  59.260	     58.33	    22.048
  59.280	     41.67	    18.634
  59.300	     50.00	    20.412
  59.320	     58.33	    22.048
  59.340	     83.33	    26.352
  59.360	     41.67	    18.634
  59.380	     41.67	    18.634
  59.400	     41.67	    18.634
  59.420	     58.33	    22.048
  59.440	     50.00	    20.412
  59.460	     58.33	    22.048
  59.480	     58.33	    22.048
  59.500	     75.00	    25.000
  59.520	     50.00	    20.412
  59.540	     50.00	    20.412
  59.560	     33.33	    16.667
  59.580	     66.67	    23.570
  59.600	     50.00	    20.412
  59.620	     75.00	    25.000
  59.640	     75.00	    25.000
  59.660	     41.67	    18.634
  59.680	     41.67	    18.634
  59.700	     66.67	    23.570
  59.720	     33.33	    16.667
  59.740	     50.00	    20.412
  59.760	     91.67	    27.639
  59.780	     58.33	    22.048
  59.800	     25.00	    14.434
  59.820	     33.33	    16.667
  59.840	     75.00	    25.000
  59.860	     41.67	    18.634
  59.880	     16.67	    11.785
  59.900	     16.67	    11.785
  59.920	     58.33	    22.048
  59.940	     33.33	    16.667
  59.960	     50.00	    20.412
  59.980	     41.67	    18.634
  60.000	     50.00	    20.412
  60.020	     50.00	    20.412
  60.040	     25.00	    14.434
  60.060	     41.67	    18.634
  60.080	     25.00	    14.434
  60.100	     33.33	    16.667
  60.120	     83.33	    26.352
  60.140	     33.33	    16.667
  60.160	     41.67	    18.634
  60.180	     91.67	    27.639
  60.200	     41.67	    18.634
  60.220	     50.00	    20.412
  60.240	     50.00	    20.412
  60.260	     75.00	    25.000
  60.280	     41.67	    18.634
  60.300	     50.00	    20.412
  60.320	     50.00	    20.412
  60.340	     41.67	    18.634
  60.360	     33.33	    16.667
  60.380	     50.00	    20.412
  60.400	     50.00	    20.412
  60.420	     58.33	    22.048
  60.440	     66.67	    23.570
  60.460	     25.00	    14.434
  60.480	     33.33	    16.667
  60.500	     58.33	    22.048
  60.520	     58.33	    22.048
  60.540	      8.33	     8.333
  60.560	     33.33	    16.667
  60.580	     41.67	    18.634
  60.600	     58.33	    22.048
  60.620	     41.67	    18.634
  60.640	     50.00	    20.412
  60.660	     41.67	    18.634
  60.680	     41.67	    18.634
  60.700	     50.00	    20.412
  60.720	     50.00	    20.412
  60.740	     25.00	    14.434
  60.760	     41.67	    18.634
  60.780	     25.00	    14.434
  60.800	     41.67	    18.634
  60.820	     16.67	    11.785
  60.840	     41.67	    18.634
  60.860	     83.33	    26.352
  60.880	     25.00	    14.434
  60.900	     66.67	    23.570
  60.920	     16.67	    11.785
  60.940	     25.00	    14.434
  60.960	     66.67	    23.570
  60.980	     83.33	    26.352
  61.000	     25.00	    14.434
  61.020	    100.00	    28.868
  61.040	     16.67	    11.785
  61.060	     16.67	    11.785
  61.080	     66.67	    23.570
  61.100	      8.33	     8.333
  61.120	     16.67	    11.785
  61.140	     50.00	    20.412
  61.160	     33.33	    16.667
  61.180	     41.67	    18.634
  61.200	     33.33	    16.667
  61.220	     33.33	    16.667
  61.240	     83.33	    26.352
  61.260	     83.33	    26.352
  61.280	     91.67	    27.639
  61.300	     41.67	    18.634
  61.320	     66.67	    23.570
  61.340	     58.33	    22.048
  61.360	     41.67	    18.634
  61.380	     33.33	    16.667
  61.400	     50.00	    20.412
  61.420	     41.67	    18.634
  61.440	     25.00	    14.434
  61.460	     50.00	    20.412
  61.480	     25.00	    14.434
  61.500	     16.67	    11.785
  61.520	     75.00	    25.000
  61.540	     41.67	    18.634
  61.560	     66.67	    23.570
  61.580	     58.33	    22.048
  61.600	     66.67	    23.570
  61.620	     83.33	    26.352
  61.640	     91.67	    27.639
  61.660	    125.00	    32.275
  61.680	     50.00	    20.412
  61.700	     41.67	    18.634
  61.720	     75.00	    25.000
  61.740	     91.67	    27.639
  61.760	    100.00	    28.868
  61.780	     50.00	    20.412
  61.800	     25.00	    14.434
  61.820	     66.67	    23.570
  61.840	     41.67	    18.634
  61.860	     66.67	    23.570
  61.880	     41.67	    18.634
  61.900	     50.00	    20.412
  61.920	     50.00	    20.412
  61.940	     91.67	    27.639
  61.960	     66.67	    23.570
  61.980	     41.67	    18.634
  62.000	      0.00	     0.000
  62.020	     66.67	    23.570
  62.040	     75.00	    25.000
  62.060	     58.33	    22.048
  62.080	     58.33	    22.048
  62.100	     75.00	    25.000
  62.120	     91.67	    27.639
  62.140	     58.33	    22.048
  62.160	     58.33	    22.048
  62.180	     91.67	    27.639
  62.200	     50.00	    20.412
  62.220	     41.67	    18.634
  62.240	     75.00	    25.000
  62.260	     58.33	    22.048
  62.280	     50.00	    20.412
  62.300	     50.00	    20.412
  62.320	     50.00	    20.412
  62.340	     75.00	    25.000
  62.360	     83.33	    26.352
  62.380	     58.33	    22.048
  62.400	     25.00	    14.434
  62.420	     66.67	    23.570
  62.440	     58.33	    22.048
  62.460	     83.33	    26.352
  62.480	     58.33	    22.048
  62.500	     91.67	    27.639
  62.520	     66.67	    23.570
  62.540	     83.33	    26.352
  62.560	     33.33	    16.667
  62.580	    100.00	    28.868
  62.600	     58.33	    22.048
  62.620	     66.67	    23.570
  62.640	     58.33	    22.048
  62.660	     50.00	    20.412
  62.680	     75.00	    25.000
  62.700	     66.67	    23.570
  62.720	     50.00	    20.412
  62.740	     41.67	    18.634
  62.760	    116.67	    31.180
  62.780	     58.33	    22.048
  62.800	     58.33	    22.048
  62.820	     66.67	    23.570
  62.840	     41.67	    18.634
  62.860	    108.33	    30.046
  62.880	     66.67	    23.570
  62.900	     83.33	    26.352
  62.920	    108.33	    30.046
  62.940	     83.33	    26.352
  62.960	     91.67	    27.639
  62.980	    108.33	    30.046
  63.000	     50.00	    20.412
  63.020	     66.67	    23.570
  63.040	     66.67	    23.570
  63.060	     16.67	    11.785
  63.080	     66.67	    23.570
  63.100	     91.67	    27.639
  63.120	     50.00	    20.412
  63.140	     25.00	    14.434
  63.160	     75.00	    25.000
  63.180	     75.00	    25.000
  63.200	     50.00	    20.412
  63.220	     41.67	    18.634
  63.240	     16.67	    11.785
  63.260	    108.33	    30.046
  63.280	     50.00	    20.412
  63.300	     33.33	    16.667
  63.320	    116.67	    31.180
  63.340	     50.00	    20.412
  63.360	     16.67	    11.785
  63.380	     50.00	    20.412
  63.400	    100.00	    28.868
  63.420	     50.00	    20.412
  63.440	     91.67	    27.639
  63.460	     58.33	    22.048
  63.480	     66.67	    23.570
  63.500	     58.33	    22.048
  63.520	     75.00	    25.000
  63.540	     58.33	    22.048
  63.560	     83.33	    26.352
  63.580	     50.00	    20.412
  63.600	    100.00	    28.868
  63.620	     91.67	    27.639
  63.640	     58.33	    22.048
  63.660	     58.33	    22.048
  63.680	     66.67	    23.570
  63.700	     33.33	    16.667
  63.720	     66.67	    23.570
  63.740	     75.00	    25.000
  63.760	     75.00	    25.000
  63.780	    100.00	    28.868
  63.800	     16.67	    11.785
  63.820	     58.33	    22.048
  63.840	     66.67	    23.570
  63.860	    100.00	    28.868
  63.880	     91.67	    27.639
  63.900	     58.33	    22.048
  63.920	     83.33	    26.352
  63.940	     50.00	    20.412
  63.960	     41.67	    18.634
  63.980	     33.33	    16.667
  64.000	     66.67	    23.570
  64.020	     25.00	    14.434
  64.040	     33.33	    16.667
  64.060	     16.67	    11.785
  64.080	     50.00	    20.412
  64.100	     66.67	    23.570
  64.120	     66.67	    23.570
  64.140	     41.67	    18.634
  64.160	     50.00	    20.412
  64.180	     58.33	    22.048
  64.200	     75.00	    25.000
  64.220	    100.00	    28.868
  64.240	     66.67	    23.570
  64.260	     41.67	    18.634
  64.280	     66.67	    23.570
  64.300	     66.67	    23.570
  64.320	    108.33	    30.046
  64.340	     75.00	    25.000
  64.360	    116.67	    31.180
  64.380	    100.00	    28.868
  64.400	    108.33	    30.046
  64.420	     91.67	    27.639
  64.440	    100.00	    28.868
  64.460	    108.33	    30.046
  64.480	    116.67	    31.180
  64.500	    200.00	    40.825
  64.520	    183.33	    39.087
  64.540	    166.67	    37.268
  64.560	    175.00	    38.188
  64.580	    183.33	    39.087
  64.600	    116.67	    31.180
  64.620	    116.67	    31.180
  64.640	    141.67	    34.359
  64.660	    183.33	    39.087
  64.680	    158.33	    36.324
  64.700	    116.67	    31.180
  64.720	    158.33	    36.324
  64.740	    125.00	    32.275
  64.760	    133.33	    33.333
  64.780	    150.00	    35.355
  64.800	    116.67	    31.180
  64.820	     83.33	    26.352
  64.840	    100.00	    28.868
  64.860	     83.33	    26.352
  64.880	    141.67	    34.359
  64.900	    100.00	    28.868
  64.920	    116.67	    31.180
  64.940	    108.33	    30.046
  64.960	    133.33	    33.333
  64.980	    175.00	    38.188
  65.000	     83.33	    26.352
  65.020	     58.33	    22.048
  65.040	    100.00	    28.868
  65.060	    133.33	    33.333
  65.080	     91.67	    27.639
  65.100	    100.00	    28.868
  65.120	     83.33	    26.352
  65.140	    166.67	    37.268
  65.160	    208.33	    41.667
  65.180	    100.00	    28.868
  65.200	    108.33	    30.046
  65.220	    133.33	    33.333
  65.240	    133.33	    33.333
  65.260	    116.67	    31.180
  65.280	    108.33	    30.046
  65.300	     41.67	    18.634
  65.320	    108.33	    30.046
  65.340	     41.67	    18.634
  65.360	     91.67	    27.639
  65.380	     75.00	    25.000
  65.400	    133.33	    33.333
  65.420	     66.67	    23.570
  65.440	     83.33	    26.352
  65.460	     58.33	    22.048
  65.480	     50.00	    20.412
  65.500	     41.67	    18.634
  65.520	     66.67	    23.570
  65.540	     33.33	    16.667
  65.560	     41.67	    18.634
  65.580	     66.67	    23.570
  65.600	     25.00	    14.434
  65.620	     58.33	    22.048
  65.640	     50.00	    20.412
  65.660	     25.00	    14.434
  65.680	     83.33	    26.352
  65.700	     83.33	    26.352
  65.720	     83.33	    26.352
  65.740	     58.33	    22.048
  65.760	     25.00	    14.434
  65.780	     50.00	    20.412
  65.800	     41.67	    18.634
  65.820	     66.67	    23.570
  65.840	     50.00	    20.412
  65.860	     75.00	    25.000
  65.880	     58.33	    22.048
  65.900	     91.67	    27.639
  65.920	     58.33	    22.048
  65.940	     25.00	    14.434
  65.960	     25.00	    14.434
  65.980	     66.67	    23.570
  66.000	     25.00	    14.434
  66.020	     33.33	    16.667
  66.040	     41.67	    18.634
  66.060	    100.00	    28.868
  66.080	     75.00	    25.000
  66.100	     75.00	    25.000
  66.120	     41.67	    18.634
  66.140	     50.00	    20.412
  66.160	     58.33	    22.048
  66.180	     41.67	    18.634
  66.200	     58.33	    22.048
  66.220	     83.33	    26.352
  66.240	     66.67	    23.570
  66.260	     41.67	    18.634
  66.280	     41.67	    18.634
  66.300	     33.33	    16.667
  66.320	     50.00	    20.412
  66.340	     50.00	    20.412
  66.360	     33.33	    16.667
  66.380	     91.67	    27.639
  66.400	     41.67	    18.634
  66.420	     50.00	    20.412
  66.440	     66.67	    23.570
  66.460	     58.33	    22.048
  66.480	     58.33	    22.048
  66.500	     25.00	    14.434
  66.520	     58.33	    22.048
  66.540	     33.33	    16.667
  66.560	     41.67	    18.634
  66.580	     83.33	    26.352
  66.600	     58.33	    22.048
  66.620	     58.33	    22.048
  66.640	     50.00	    20.412
  66.660	     33.33	    16.667
  66.680	     41.67	    18.634
  66.700	     41.67	    18.634
  66.720	     83.33	    26.352
  66.740	     66.67	    23.570
  66.760	     58.33	    22.048
  66.780	     91.67	    27.639
  66.800	     25.00	    14.434
  66.820	     33.33	    16.667
  66.840	     66.67	    23.570
  66.860	     83.33	    26.352
  66.880	     58.33	    22.048
  66.900	     58.33	    22.048
  66.920	    116.67	    31.180
  66.940	     58.33	    22.048
  66.960	     83.33	    26.352
  66.980	     58.33	    22.048
  67.000	     83.33	    26.352
  67.020	    100.00	    28.868
  67.040	     50.00	    20.412
  67.060	     75.00	    25.000
  67.080	     41.67	    18.634
  67.100	     75.00	    25.000
  67.120	     75.00	    25.000
  67.140	     50.00	    20.412
  67.160	     41.67	    18.634
  67.180	     83.33	    26.352
  67.200	     41.67	    18.634
  67.220	     58.33	    22.048
  67.240	     66.67	    23.570
  67.260	     41.67	    18.634
  67.280	     50.00	    20.412
  67.300	     50.00	    20.412
  67.320	     66.67	    23.570
  67.340	     75.00	    25.000
  67.360	     91.67	    27.639
  67.380	     58.33	    22.048
  67.400	    108.33	    30.046
  67.420	     75.00	    25.000
  67.440	    116.67	    31.180
  67.460	     83.33	    26.352
  67.480	    108.33	    30.046
  67.500	    108.33	    30.046
  67.520	    150.00	    35.355
  67.540	    133.33	    33.333
  67.560	    116.67	    31.180
  67.580	    100.00	    28.868
  67.600	     83.33	    26.352
  67.620	    116.67	    31.180
  67.640	     66.67	    23.570
  67.660	     58.33	    22.048
  67.680	     33.33	    16.667
  67.700	     66.67	    23.570
  67.720	     66.67	    23.570
  67.740	     66.67	    23.570
  67.760	     58.33	    22.048
  67.780	     25.00	    14.434
  67.800	     83.33	    26.352
  67.820	    100.00	    28.868
  67.840	    108.33	    30.046
  67.860	     16.67	    11.785
  67.880	     41.67	    18.634
  67.900	     41.67	    18.634
  67.920	     33.33	    16.667
  67.940	      8.33	     8.333
  67.960	     41.67	    18.634
  67.980	     25.00	    14.434
  68.000	     50.00	    20.412
  68.020	     50.00	    20.412
  68.040	     33.33	    16.667
  68.060	     41.67	    18.634
  68.080	     58.33	    22.048
  68.100	     33.33	    16.667
  68.120	     41.67	    18.634
  68.140	     58.33	    22.048
  68.160	     75.00	    25.000
  68.180	     33.33	    16.667
  68.200	     66.67	    23.570
  68.220	     41.67	    18.634
  68.240	     25.00	    14.434
  68.260	     25.00	    14.434
  68.280	     58.33	    22.048
  68.300	     50.00	    20.412
  68.320	     83.33	    26.352
  68.340	     50.00	    20.412
  68.360	     41.67	    18.634
  68.380	     16.67	    11.785
  68.400	     25.00	    14.434
  68.420	     25.00	    14.434
  68.440	      8.33	     8.333
  68.460	     41.67	    18.634
  68.480	     25.00	    14.434
  68.500	     33.33	    16.667
  68.520	     75.00	    25.000
  68.540	     58.33	    22.048
  68.560	     16.67	    11.785
  68.580	     41.67	    18.634
  68.600	     50.00	    20.412
  68.620	     58.33	    22.048
  68.640	      8.33	     8.333
  68.660	     41.67	    18.634
  68.680	     50.00	    20.412
  68.700	     50.00	    20.412
  68.720	     16.67	    11.785
  68.740	     50.00	    20.412
  68.760	     33.33	    16.667
  68.780	     41.67	    18.634
  68.800	     66.67	    23.570
  68.820	     33.33	    16.667
  68.840	     58.33	    22.048
  68.860	     66.67	    23.570
  68.880	     41.67	    18.634
  68.900	     41.67	    18.634
  68.920	     58.33	    22.048
  68.940	     50.00	    20.412
  68.960	     25.00	    14.434
  68.980	     25.00	    14.434
  69.000	     25.00	    14.434
  69.020	     33.33	    16.667
  69.040	     41.67	    18.634
  69.060	     33.33	    16.667
  69.080	     50.00	    20.412
  69.100	     16.67	    11.785
  69.120	     25.00	    14.434
  69.140	     50.00	    20.412
  69.160	     25.00	    14.434
  69.180	     25.00	    14.434
  69.200	     58.33	    22.048
  69.220	     58.33	    22.048
  69.240	     16.67	    11.785
  69.260	     58.33	    22.048
  69.280	     41.67	    18.634
  69.300	     25.00	    14.434
  69.320	     50.00	    20.412
  69.340	     50.00	    20.412
  69.360	     41.67	    18.634
  69.380	     41.67	    18.634
  69.400	     50.00	    20.412
  69.420	    125.00	    32.275
  69.440	    100.00	    28.868
  69.460	     91.67	    27.639
  69.480	    100.00	    28.868
  69.500	    125.00	    32.275
  69.520	    116.67	    31.180
  69.540	    108.33	    30.046
  69.560	     91.67	    27.639
  69.580	    116.67	    31.180
  69.600	     58.33	    22.048
  69.620	     91.67	    27.639
  69.640	    108.33	    30.046
  69.660	     75.00	    25.000
  69.680	     91.67	    27.639
  69.700	    108.33	    30.046
  69.720	     83.33	    26.352
  69.740	     58.33	    22.048
  69.760	     66.67	    23.570
  69.780	     83.33	    26.352
  69.800	    108.33	    30.046
  69.820	     58.33	    22.048
  69.840	     66.67	    23.570
  69.860	    100.00	    28.868
  69.880	    108.33	    30.046
  69.900	     91.67	    27.639
  69.920	     75.00	    25.000
  69.940	     41.67	    18.634
  69.960	     50.00	    20.412
  69.980	    116.67	    31.180
  70.000	    116.67	    31.180
  70.020	     75.00	    25.000
  70.040	     75.00	    25.000
  70.060	    100.00	    28.868
  70.080	    108.33	    30.046
  70.100	     33.33	    16.667
  70.120	     50.00	    20.412
  70.140	     50.00	    20.412
  70.160	     25.00	    14.434
  70.180	      8.33	     8.333
  70.200	     16.67	    11.785
  70.220	     50.00	    20.412
  70.240	     66.67	    23.570
  70.260	     41.67	    18.634
  70.280	     50.00	    20.412
  70.300	     83.33	    26.352
  70.320	     50.00	    20.412
  70.340	     25.00	    14.434
  70.360	     75.00	    25.000
  70.380	     25.00	    14.434
  70.400	     41.67	    18.634
  70.420	     41.67	    18.634
  70.440	     66.67	    23.570
  70.460	     33.33	    16.667
  70.480	     50.00	    20.412
  70.500	     16.67	    11.785
  70.520	     41.67	    18.634
  70.540	     33.33	    16.667
  70.560	     41.67	    18.634
  70.580	     16.67	    11.785
  70.600	     33.33	    16.667
  70.620	     41.67	    18.634
  70.640	     25.00	    14.434
  70.660	     33.33	    16.667
  70.680	     66.67	    23.570
  70.700	     25.00	    14.434
  70.720	     41.67	    18.634
  70.740	     50.00	    20.412
  70.760	     50.00	    20.412
  70.780	     50.00	    20.412
  70.800	     33.33	    16.667
  70.820	     16.67	    11.785
  70.840	     50.00	    20.412
  70.860	     41.67	    18.634
  70.880	     33.33	    16.667
  70.900	     33.33	    16.667
  70.920	     25.00	    14.434
  70.940	     33.33	    16.667
  70.960	      8.33	     8.333
  70.980	     41.67	    18.634
  71.000	     41.67	    18.634
  71.020	     66.67	    23.570
  71.040	     25.00	    14.434
  71.060	     33.33	    16.667
  71.080	     33.33	    16.667
  71.100	     58.33	    22.048
  71.120	     16.67	    11.785
  71.140	     58.33	    22.048
  71.160	     41.67	    18.634
  71.180	     50.00	    20.412
  71.200	     16.67	    11.785
  71.220	     58.33	    22.048
  71.240	     50.00	    20.412
  71.260	     83.33	    26.352
  71.280	     66.67	    23.570
  71.300	     66.67	    23.570
  71.320	     66.67	    23.570
  71.340	     41.67	    18.634
  71.360	     58.33	    22.048
  71.380	     33.33	    16.667
  71.400	     50.00	    20.412
  71.420	     25.00	    14.434
  71.440	     33.33	    16.667
  71.460	     50.00	    20.412
  71.480	     25.00	    14.434
  71.500	     58.33	    22.048
  71.520	     33.33	    16.667
  71.540	     33.33	    16.667
  71.560	     33.33	    16.667
  71.580	     25.00	    14.434
  71.600	     58.33	    22.048
  71.620	     66.67	    23.570
  71.640	     50.00	    20.412
  71.660	     41.67	    18.634
  71.680	     58.33	    22.048
  71.700	     83.33	    26.352
  71.720	     50.00	    20.412
  71.740	     33.33	    16.667
  71.760	      8.33	     8.333
  71.780	     16.67	    11.785
  71.800	      8.33	     8.333
  71.820	     75.00	    25.000
  71.840	     41.67	    18.634
  71.860	     50.00	    20.412
  71.880	     25.00	    14.434
  71.900	     50.00	    20.412
  71.920	     41.67	    18.634
  71.940	     16.67	    11.785
  71.960	     50.00	    20.412
  71.980	     66.67	    23.570
  72.000	     75.00	    25.000
  72.020	     25.00	    14.434
  72.040	     33.33	    16.667
  72.060	     83.33	    26.352
  72.080	     41.67	    18.634
  72.100	     25.00	    14.434
  72.120	     33.33	    16.667
  72.140	     58.33	    22.048
  72.160	     33.33	    16.667
  72.180	     16.67	    11.785
  72.200	     25.00	    14.434
  72.220	     50.00	    20.412
  72.240	     33.33	    16.667
  72.260	     58.33	    22.048
  72.280	     50.00	    20.412
  72.300	     50.00	    20.412
  72.320	     33.33	    16.667
  72.340	     83.33	    26.352
  72.360	      8.33	     8.333
  72.380	     66.67	    23.570
  72.400	     25.00	    14.434
  72.420	     33.33	    16.667
  72.440	     66.67	    23.570
  72.460	     66.67	    23.570
  72.480	     25.00	    14.434
  72.500	     58.33	    22.048
  72.520	     50.00	    20.412
  72.540	     50.00	    20.412
  72.560	     66.67	    23.570
  72.580	     50.00	    20.412
  72.600	     83.33	    26.352
  72.620	     66.67	    23.570
  72.640	     58.33	    22.048
  72.660	     58.33	    22.048
  72.680	    100.00	    28.868
  72.700	     66.67	    23.570
  72.720	     41.67	    18.634
  72.740	     33.33	    16.667
  72.760	    116.67	    31.180
  72.780	     91.67	    27.639
  72.800	    100.00	    28.868
  72.820	     83.33	    26.352
  72.840	     91.67	    27.639
  72.860	     83.33	    26.352
  72.880	    150.00	    35.355
  72.900	    116.67	    31.180
  72.920	     58.33	    22.048
  72.940	     75.00	    25.000
  72.960	    108.33	    30.046
  72.980	    141.67	    34.359
  73.000	     75.00	    25.000
  73.020	     83.33	    26.352
  73.040	    125.00	    32.275
  73.060	     66.67	    23.570
  73.080	     66.67	    23.570
  73.100	     16.67	    11.785
  73.120	    100.00	    28.868
  73.140	     91.67	    27.639
  73.160	    116.67	    31.180
  73.180	     41.67	    18.634
  73.200	     83.33	    26.352
  73.220	     41.67	    18.634
  73.240	     83.33	    26.352
  73.260	     33.33	    16.667
  73.280	     75.00	    25.000
  73.300	    100.00	    28.868
  73.320	     58.33	    22.048
  73.340	     50.00	    20.412
  73.360	     16.67	    11.785
  73.380	     25.00	    14.434
  73.400	     33.33	    16.667
  73.420	     83.33	    26.352
  73.440	     58.33	    22.048
  73.460	     33.33	    16.667
  73.480	     41.67	    18.634
  73.500	     25.00	    14.434
  73.520	     41.67	    18.634
  73.540	     66.67	    23.570
  73.560	     41.67	    18.634
  73.580	     41.67	    18.634
  73.600	     41.67	    18.634
  73.620	     50.00	    20.412
  73.640	     58.33	    22.048
  73.660	     50.00	    20.412
  73.680	     25.00	    14.434
  73.700	     33.33	    16.667
  73.720	     58.33	    22.048
  73.740	     16.67	    11.785
  73.760	     41.67	    18.634
  73.780	     41.67	    18.634
  73.800	     50.00	    20.412
  73.820	     66.67	    23.570
  73.840	     41.67	    18.634
  73.860	     41.67	    18.634
  73.880	     50.00	    20.412
  73.900	     16.67	    11.785
  73.920	     91.67	    27.639
  73.940	     33.33	    16.667
  73.960	     58.33	    22.048
  73.980	     66.67	    23.570
  74.000	     33.33	    16.667
  74.020	     66.67	    23.570
  74.040	     33.33	    16.667
  74.060	     58.33	    22.048
  74.080	     91.67	    27.639
  74.100	     91.67	    27.639
  74.120	     16.67	    11.785
  74.140	     50.00	    20.412
  74.160	     50.00	    20.412
  74.180	     33.33	    16.667
  74.200	     41.67	    18.634
  74.220	     58.33	    22.048
  74.240	     50.00	    20.412
  74.260	     58.33	    22.048
  74.280	     58.33	    22.048
  74.300	     41.67	    18.634
  74.320	     41.67	    18.634
  74.340	     50.00	    20.412
  74.360	     41.67	    18.634
  74.380	     75.00	    25.000
  74.400	     58.33	    22.048
  74.420	     41.67	    18.634
  74.440	     33.33	    16.667
  74.460	     41.67	    18.634
  74.480	     25.00	    14.434
  74.500	     50.00	    20.412
  74.520	     33.33	    16.667
  74.540	     50.00	    20.412
  74.560	     33.33	    16.667
  74.580	     50.00	    20.412
  74.600	     25.00	    14.434
  74.620	     16.67	    11.785
  74.640	     41.67	    18.634
  74.660	     41.67	    18.634
  74.680	     33.33	    16.667
  74.700	     33.33	    16.667
  74.720	     75.00	    25.000
  74.740	     66.67	    23.570
  74.760	     50.00	    20.412
  74.780	     25.00	    14.434
  74.800	     50.00	    20.412
  74.820	     50.00	    20.412
  74.840	     41.67	    18.634
  74.860	     25.00	    14.434
  74.880	     16.67	    11.785
  74.900	     58.33	    22.048
  74.920	     58.33	    22.048
  74.940	     50.00	    20.412
  74.960	     16.67	    11.785
  74.980	     41.67	    18.634
  75.000	     50.00	    20.412
  75.020	     16.67	    11.785
  75.040	     75.00	    25.000
  75.060	      8.33	     8.333
  75.080	     41.67	    18.634
  75.100	     41.67	    18.634
  75.120	     33.33	    16.667
  75.140	     41.67	    18.634
  75.160	     58.33	    22.048
  75.180	     50.00	    20.412
  75.200	     83.33	    26.352
  75.220	     16.67	    11.785
  75.240	     50.00	    20.412
  75.260	     50.00	    20.412
  75.280	     75.00	    25.000
  75.300	     33.33	    16.667
  75.320	     58.33	    22.048
  75.340	     58.33	    22.048
  75.360	     50.00	    20.412
  75.380	     66.67	    23.570
  75.400	     66.67	    23.570
  75.420	     50.00	    20.412
  75.440	     50.00	    20.412
  75.460	     33.33	    16.667
  75.480	     75.00	    25.000
  75.500	     16.67	    11.785
  75.520	     41.67	    18.634
  75.540	     91.67	    27.639
  75.560	     50.00	    20.412
  75.580	     50.00	    20.412
  75.600	     41.67	    18.634
  75.620	     33.33	    16.667
  75.640	     75.00	    25.000
  75.660	     25.00	    14.434
  75.680	     58.33	    22.048
  75.700	     50.00	    20.412
  75.720	     33.33	    16.667
  75.740	     33.33	    16.667
  75.760	     16.67	    11.785
  75.780	     50.00	    20.412
  75.800	     50.00	    20.412
  75.820	     75.00	    25.000
  75.840	     50.00	    20.412
  75.860	      8.33	     8.333
  75.880	     33.33	    16.667
  75.900	     33.33	    16.667
  75.920	     58.33	    22.048
  75.940	     33.33	    16.667
  75.960	     41.67	    18.634
  75.980	     41.67	    18.634
  76.000	     66.67	    23.570
  76.020	     25.00	    14.434
  76.040	     50.00	    20.412
  76.060	     16.67	    11.785
  76.080	     41.67	    18.634
  76.100	      0.00	     0.000
  76.120	     33.33	    16.667
  76.140	     66.67	    23.570
  76.160	     50.00	    20.412
  76.180	     41.67	    18.634
  76.200	     58.33	    22.048
  76.220	     33.33	    16.667
  76.240	     33.33	    16.667
  76.260	     58.33	    22.048
  76.280	     25.00	    14.434
  76.300	     83.33	    26.352
  76.320	     33.33	    16.667
  76.340	     25.00	    14.434
  76.360	     58.33	    22.048
  76.380	     33.33	    16.667
  76.400	     50.00	    20.412
  76.420	     25.00	    14.434
  76.440	     41.67	    18.634
  76.460	     41.67	    18.634
  76.480	     50.00	    20.412
  76.500	     83.33	    26.352
  76.520	     75.00	    25.000
  76.540	     83.33	    26.352
  76.560	    108.33	    30.046
  76.580	    116.67	    31.180
  76.600	     33.33	    16.667
  76.620	    108.33	    30.046
  76.640	     66.67	    23.570
  76.660	    108.33	    30.046
  76.680	     83.33	    26.352
  76.700	     66.67	    23.570
  76.720	     83.33	    26.352
  76.740	     75.00	    25.000
  76.760	     83.33	    26.352
  76.780	    100.00	    28.868
  76.800	     66.67	    23.570
  76.820	     41.67	    18.634
  76.840	    100.00	    28.868
  76.860	     16.67	    11.785
  76.880	     66.67	    23.570
  76.900	     41.67	    18.634
  76.920	     41.67	    18.634
  76.940	    108.33	    30.046
  76.960	     25.00	    14.434
  76.980	     41.67	    18.634
  77.000	     33.33	    16.667
  77.020	     83.33	    26.352
  77.040	     75.00	    25.000
  77.060	     33.33	    16.667
  77.080	      8.33	     8.333
  77.100	    100.00	    28.868
  77.120	     66.67	    23.570
  77.140	     50.00	    20.412
  77.160	     50.00	    20.412
  77.180	    108.33	    30.046
  77.200	     58.33	    22.048
  77.220	     41.67	    18.634
  77.240	     50.00	    20.412
  77.260	     58.33	    22.048
  77.280	     83.33	    26.352
  77.300	     83.33	    26.352
  77.320	     75.00	    25.000
  77.340	     33.33	    16.667
  77.360	     58.33	    22.048
  77.380	     83.33	    26.352
  77.400	     50.00	    20.412
  77.420	     50.00	    20.412
  77.440	     25.00	    14.434
  77.460	     75.00	    25.000
  77.480	     16.67	    11.785
  77.500	     58.33	    22.048
  77.520	    108.33	    30.046
  77.540	     83.33	    26.352
  77.560	     66.67	    23.570
  77.580	     50.00	    20.412
  77.600	     41.67	    18.634
  77.620	     58.33	    22.048
  77.640	     41.67	    18.634
  77.660	     41.67	    18.634
  77.680	     33.33	    16.667
  77.700	     66.67	    23.570
  77.720	     41.67	    18.634
  77.740	     41.67	    18.634
  77.760	     58.33	    22.048
  77.780	     83.33	    26.352
  77.800	     50.00	    20.412
  77.820	     66.67	    23.570
  77.840	     58.33	    22.048
  77.860	     58.33	    22.048
  77.880	     41.67	    18.634
  77.900	     75.00	    25.000
  77.920	     58.33	    22.048
  77.940	     66.67	    23.570
  77.960	     41.67	    18.634
  77.980	     25.00	    14.434
  78.000	     66.67	    23.570
  78.020	     91.67	    27.639
  78.040	     25.00	    14.434
  78.060	     33.33	    16.667
  78.080	     58.33	    22.048
  78.100	     58.33	    22.048
  78.120	     33.33	    16.667
  78.140	     75.00	    25.000
  78.160	     50.00	    20.412
  78.180	     33.33	    16.667
  78.200	     50.00	    20.412
  78.220	     41.67	    18.634
  78.240	     25.00	    14.434
  78.260	     66.67	    23.570
  78.280	     50.00	    20.412
  78.300	     66.67	    23.570
  78.320	     25.00	    14.434
  78.340	     58.33	    22.048
  78.360	     50.00	    20.412
  78.380	     41.67	    18.634
  78.400	     16.67	    11.785
  78.420	      8.33	     8.333
  78.440	     66.67	    23.570
  78.460	     25.00	    14.434
  78.480	     25.00	    14.434
  78.500	     50.00	    20.412
  78.520	     83.33	    26.352
  78.540	     66.67	    23.570
  78.560	     50.00	    20.412
  78.580	     25.00	    14.434
  78.600	     41.67	    18.634
  78.620	     33.33	    16.667
  78.640	     33.33	    16.667
  78.660	     33.33	    16.667
  78.680	     66.67	    23.570
  78.700	     58.33	    22.048
  78.720	     58.33	    22.048
  78.740	    108.33	    30.046
  78.760	     41.67	    18.634
  78.780	     25.00	    14.434
  78.800	    158.33	    36.324
  78.820	     91.67	    27.639
  78.840	    100.00	    28.868
  78.860	    191.67	    39.965
  78.880	    141.67	    34.359
  78.900	    116.67	    31.180
  78.920	    108.33	    30.046
  78.940	    100.00	    28.868
  78.960	     58.33	    22.048
  78.980	     83.33	    26.352
  79.000	     33.33	    16.667
  79.020	     75.00	    25.000
  79.040	     33.33	    16.667
  79.060	     50.00	    20.412
  79.080	     91.67	    27.639
  79.100	     50.00	    20.412
  79.120	     91.67	    27.639
  79.140	     75.00	    25.000
  79.160	    108.33	    30.046
  79.180	     58.33	    22.048
  79.200	     41.67	    18.634
  79.220	     50.00	    20.412
  79.240	     50.00	    20.412
  79.260	     16.67	    11.785
  79.280	     41.67	    18.634
  79.300	      8.33	     8.333
  79.320	     58.33	    22.048
  79.340	     33.33	    16.667
  79.360	     25.00	    14.434
  79.380	     33.33	    16.667
  79.400	     33.33	    16.667
  79.420	     66.67	    23.570
  79.440	     58.33	    22.048
  79.460	     58.33	    22.048
  79.480	     25.00	    14.434
  79.500	     75.00	    25.000
  79.520	     16.67	    11.785
  79.540	     58.33	    22.048
  79.560	     50.00	    20.412
  79.580	     41.67	    18.634
  79.600	     50.00	    20.412
  79.620	     33.33	    16.667
  79.640	     66.67	    23.570
  79.660	     25.00	    14.434
  79.680	     25.00	    14.434
  79.700	     25.00	    14.434
  79.720	     66.67	    23.570
  79.740	     75.00	    25.000
  79.760	     41.67	    18.634
  79.780	     41.67	    18.634
  79.800	     33.33	    16.667
  79.820	     41.67	    18.634
  79.840	     41.67	    18.634
  79.860	     33.33	    16.667
  79.880	     25.00	    14.434
  79.900	     58.33	    22.048
  79.920	     16.67	    11.785
  79.940	     66.67	    23.570
  79.960	     16.67	    11.785
  79.980	     33.33	    16.667
  80.000	    116.67	    31.180
  80.020	     58.33	    22.048
  80.040	     25.00	    14.434
  80.060	     33.33	    16.667
  80.080	     58.33	    22.048
  80.100	     33.33	    16.667
  80.120	     41.67	    18.634
  80.140	     75.00	    25.000
  80.160	     16.67	    11.785
  80.180	     66.67	    23.570
  80.200	     66.67	    23.570
  80.220	     16.67	    11.785
  80.240	     58.33	    22.048
  80.260	     50.00	    20.412
  80.280	     41.67	    18.634
  80.300	     58.33	    22.048
  80.320	     33.33	    16.667
  80.340	     41.67	    18.634
  80.360	     50.00	    20.412
  80.380	      8.33	     8.333
  80.400	     33.33	    16.667
  80.420	     25.00	    14.434
  80.440	     33.33	    16.667
  80.460	     33.33	    16.667
  80.480	     33.33	    16.667
  80.500	     58.33	    22.048
  80.520	     50.00	    20.412
  80.540	     33.33	    16.667
  80.560	     41.67	    18.634
  80.580	     33.33	    16.667
  80.600	     58.33	    22.048
  80.620	     25.00	    14.434
  80.640	     16.67	    11.785
  80.660	     33.33	    16.667
  80.680	     41.67	    18.634
  80.700	     50.00	    20.412
  80.720	     33.33	    16.667
  80.740	     16.67	    11.785
  80.760	     25.00	    14.434
  80.780	     41.67	    18.634
  80.800	     33.33	    16.667
  80.820	     83.33	    26.352
  80.840	     41.67	    18.634
  80.860	     41.67	    18.634
  80.880	     50.00	    20.412
  80.900	     25.00	    14.434
  80.920	     33.33	    16.667
  80.940	     25.00	    14.434
  80.960	     50.00	    20.412
  80.980	     33.33	    16.667
  81.000	     58.33	    22.048
  81.020	     33.33	    16.667
  81.040	     16.67	    11.785
  81.060	     66.67	    23.570
  81.080	     75.00	    25.000
  81.100	     25.00	    14.434
  81.120	     25.00	    14.434
  81.140	     41.67	    18.634
  81.160	     58.33	    22.048
  81.180	     25.00	    14.434
  81.200	     58.33	    22.048
  81.220	      8.33	     8.333
  81.240	     16.67	    11.785
  81.260	     41.67	    18.634
  81.280	     33.33	    16.667
  81.300	     33.33	    16.667
  81.320	     25.00	    14.434
  81.340	     58.33	    22.048
  81.360	      8.33	     8.333
  81.380	     33.33	    16.667
  81.400	     75.00	    25.000
  81.420	     41.67	    18.634
  81.440	     25.00	    14.434
  81.460	     50.00	    20.412
  81.480	     16.67	    11.785
  81.500	     75.00	    25.000
  81.520	     41.67	    18.634
  81.540	     41.67	    18.634
  81.560	     25.00	    14.434
  81.580	     25.00	    14.434
  81.600	     50.00	    20.412
  81.620	     41.67	    18.634
  81.640	     25.00	    14.434
  81.660	     33.33	    16.667
  81.680	     41.67	    18.634
  81.700	     91.67	    27.639
  81.720	     50.00	    20.412
  81.740	     33.33	    16.667
  81.760	     83.33	    26.352
  81.780	     33.33	    16.667
  81.800	     50.00	    20.412
  81.820	     41.67	    18.634
  81.840	     66.67	    23.570
  81.860	     25.00	    14.434
  81.880	     41.67	    18.634
  81.900	     58.33	    22.048
  81.920	     83.33	    26.352
  81.940	     41.67	    18.634
  81.960	     41.67	    18.634
  81.980	     33.33	    16.667
  82.000	     58.33	    22.048
  82.020	     66.67	    23.570
  82.040	     33.33	    16.667
  82.060	    116.67	    31.180
  82.080	     75.00	    25.000
  82.100	     66.67	    23.570
  82.120	     66.67	    23.570
  82.140	     83.33	    26.352
  82.160	     25.00	    14.434
  82.180	     91.67	    27.639
  82.200	    108.33	    30.046
  82.220	     83.33	    26.352
  82.240	     75.00	    25.000
  82.260	    108.33	    30.046
  82.280	     41.67	    18.634
  82.300	     75.00	    25.000
  82.320	     33.33	    16.667
  82.340	     91.67	    27.639
  82.360	    108.33	    30.046
  82.380	     58.33	    22.048
  82.400	    166.67	    37.268
  82.420	     75.00	    25.000
  82.440	    108.33	    30.046
  82.460	     75.00	    25.000
  82.480	     66.67	    23.570
  82.500	     75.00	    25.000
  82.520	     50.00	    20.412
  82.540	     75.00	    25.000
  82.560	     75.00	    25.000
  82.580	     75.00	    25.000
  82.600	     66.67	    23.570
  82.620	     66.67	    23.570
  82.640	     25.00	    14.434
  82.660	     58.33	    22.048
  82.680	     75.00	    25.000
  82.700	     41.67	    18.634
  82.720	    108.33	    30.046
  82.740	     91.67	    27.639
  82.760	     91.67	    27.639
  82.780	     50.00	    20.412
  82.800	     50.00	    20.412
  82.820	     66.67	    23.570
  82.840	    100.00	    28.868
  82.860	     50.00	    20.412
  82.880	     75.00	    25.000
  82.900	     91.67	    27.639
  82.920	     66.67	    23.570
  82.940	     58.33	    22.048
  82.960	     66.67	    23.570
  82.980	     41.67	    18.634
  83.000	     16.67	    11.785
  83.020	     41.67	    18.634
  83.040	     75.00	    25.000
  83.060	     66.67	    23.570
  83.080	     50.00	    20.412
  83.100	     66.67	    23.570
  83.120	     50.00	    20.412
  83.140	     66.67	    23.570
  83.160	     33.33	    16.667
  83.180	    100.00	    28.868
  83.200	    100.00	    28.868
  83.220	     75.00	    25.000
  83.240	     50.00	    20.412
  83.260	     41.67	    18.634
  83.280	     41.67	    18.634
  83.300	     91.67	    27.639
  83.320	     50.00	    20.412
  83.340	     66.67	    23.570
  83.360	     66.67	    23.570
  83.380	     33.33	    16.667
  83.400	     58.33	    22.048
  83.420	     25.00	    14.434
  83.440	     66.67	    23.570
  83.460	     25.00	    14.434
  83.480	     33.33	    16.667
  83.500	     58.33	    22.048
  83.520	     75.00	    25.000
  83.540	    108.33	    30.046
  83.560	     25.00	    14.434
  83.580	     91.67	    27.639
  83.600	     83.33	    26.352
  83.620	     33.33	    16.667
  83.640	     41.67	    18.634
  83.660	     66.67	    23.570
  83.680	     91.67	    27.639
  83.700	     58.33	    22.048
  83.720	     25.00	    14.434
  83.740	     50.00	    20.412
  83.760	     50.00	    20.412
  83.780	     50.00	    20.412
  83.800	     33.33	    16.667
  83.820	     33.33	    16.667
  83.840	     50.00	    20.412
  83.860	     16.67	    11.785
  83.880	     50.00	    20.412
  83.900	     66.67	    23.570
  83.920	     58.33	    22.048
  83.940	     41.67	    18.634
  83.960	     83.33	    26.352
  83.980	     50.00	    20.412
  84.000	     25.00	    14.434
  84.020	     41.67	    18.634
  84.040	     50.00	    20.412
  84.060	     41.67	    18.634
  84.080	     41.67	    18.634
  84.100	     41.67	    18.634
  84.120	     25.00	    14.434
  84.140	     83.33	    26.352
  84.160	     41.67	    18.634
  84.180	     50.00	    20.412
  84.200	     33.33	    16.667
  84.220	    100.00	    28.868
  84.240	     41.67	    18.634
  84.260	     91.67	    27.639
  84.280	     50.00	    20.412
  84.300	     58.33	    22.048
  84.320	     83.33	    26.352
  84.340	     41.67	    18.634
  84.360	     41.67	    18.634
  84.380	     83.33	    26.352
  84.400	     41.67	    18.634
  84.420	     50.00	    20.412
  84.440	     58.33	    22.048
  84.460	     58.33	    22.048
  84.480	     75.00	    25.000
  84.500	     58.33	    22.048
  84.520	    100.00	    28.868
  84.540	     50.00	    20.412
  84.560	     75.00	    25.000
  84.580	     41.67	    18.634
  84.600	     25.00	    14.434
  84.620	     66.67	    23.570
  84.640	     41.67	    18.634
  84.660	     66.67	    23.570
  84.680	     91.67	    27.639
  84.700	     91.67	    27.639
  84.720	     58.33	    22.048
  84.740	     50.00	    20.412
  84.760	    100.00	    28.868
  84.780	    125.00	    32.275
  84.800	     50.00	    20.412
  84.820	     66.67	    23.570
  84.840	    100.00	    28.868
  84.860	     50.00	    20.412
  84.880	    108.33	    30.046
  84.900	     75.00	    25.000
  84.920	     91.67	    27.639
  84.940	     75.00	    25.000
  84.960	     50.00	    20.412
  84.980	     66.67	    23.570
  85.000	    116.67	    31.180
  85.020	     83.33	    26.352
  85.040	     66.67	    23.570
  85.060	     91.67	    27.639
  85.080	     83.33	    26.352
  85.100	     83.33	    26.352
  85.120	     91.67	    27.639
  85.140	     75.00	    25.000
  85.160	     66.67	    23.570
  85.180	     66.67	    23.570
  85.200	    100.00	    28.868
  85.220	     75.00	    25.000
  85.240	     66.67	    23.570
  85.260	     66.67	    23.570
  85.280	     58.33	    22.048
  85.300	     66.67	    23.570
  85.320	     75.00	    25.000
  85.340	     66.67	    23.570
  85.360	     91.67	    27.639
  85.380	     33.33	    16.667
  85.400	     33.33	    16.667
  85.420	     66.67	    23.570
  85.440	     83.33	    26.352
  85.460	     66.67	    23.570
  85.480	     91.67	    27.639
  85.500	     91.67	    27.639
  85.520	    100.00	    28.868
  85.540	     50.00	    20.412
  85.560	     75.00	    25.000
  85.580	     91.67	    27.639
  85.600	     66.67	    23.570
  85.620	     75.00	    25.000
  85.640	     50.00	    20.412
  85.660	     58.33	    22.048
  85.680	     16.67	    11.785
  85.700	     91.67	    27.639
  85.720	     66.67	    23.570
  85.740	     75.00	    25.000
  85.760	     75.00	    25.000
  85.780	     58.33	    22.048
  85.800	     33.33	    16.667
  85.820	     58.33	    22.048
  85.840	     75.00	    25.000
  85.860	     58.33	    22.048
  85.880	     50.00	    20.412
  85.900	     58.33	    22.048
  85.920	     66.67	    23.570
  85.940	     50.00	    20.412
  85.960	     66.67	    23.570
  85.980	     33.33	    16.667
  86.000	     33.33	    16.667
  86.020	     41.67	    18.634
  86.040	     33.33	    16.667
  86.060	     33.33	    16.667
  86.080	     58.33	    22.048
  86.100	     58.33	    22.048
  86.120	     25.00	    14.434
  86.140	     33.33	    16.667
  86.160	     66.67	    23.570
  86.180	     58.33	    22.048
  86.200	     25.00	    14.434
  86.220	     25.00	    14.434
  86.240	     58.33	    22.048
  86.260	     33.33	    16.667
  86.280	     16.67	    11.785
  86.300	     25.00	    14.434
  86.320	     75.00	    25.000
  86.340	     25.00	    14.434
  86.360	     16.67	    11.785
  86.380	     58.33	    22.048
  86.400	     25.00	    14.434
  86.420	     33.33	    16.667
  86.440	     75.00	    25.000
  86.460	     58.33	    22.048
  86.480	     33.33	    16.667
  86.500	     58.33	    22.048
  86.520	     33.33	    16.667
  86.540	     41.67	    18.634
  86.560	      8.33	     8.333
  86.580	     50.00	    20.412
  86.600	     41.67	    18.634
  86.620	     50.00	    20.412
  86.640	     58.33	    22.048
  86.660	     33.33	    16.667
  86.680	     58.33	    22.048
  86.700	     33.33	    16.667
  86.720	     16.67	    11.785
  86.740	     33.33	    16.667
  86.760	     50.00	    20.412
  86.780	     66.67	    23.570
  86.800	     16.67	    11.785
  86.820	     58.33	    22.048
  86.840	     41.67	    18.634
  86.860	     50.00	    20.412
  86.880	     33.33	    16.667
  86.900	     75.00	    25.000
  86.920	     33.33	    16.667
  86.940	     41.67	    18.634
  86.960	     50.00	    20.412
  86.980	     33.33	    16.667
  87.000	     25.00	    14.434
  87.020	     75.00	    25.000
  87.040	     41.67	    18.634
  87.060	     50.00	    20.412
  87.080	     41.67	    18.634
  87.100	     58.33	    22.048
  87.120	     33.33	    16.667
  87.140	     33.33	    16.667
  87.160	     25.00	    14.434
  87.180	     25.00	    14.434
  87.200	     75.00	    25.000
  87.220	     41.67	    18.634
  87.240	     33.33	    16.667
  87.260	     50.00	    20.412
  87.280	     58.33	    22.048
  87.300	     33.33	    16.667
  87.320	     58.33	    22.048
  87.340	     50.00	    20.412
  87.360	     41.67	    18.634
  87.380	     25.00	    14.434
  87.400	     33.33	    16.667
  87.420	     33.33	    16.667
  87.440	      8.33	     8.333
  87.460	     33.33	    16.667
  87.480	     41.67	    18.634
  87.500	     58.33	    22.048
  87.520	     75.00	    25.000
  87.540	     58.33	    22.048
  87.560	     66.67	    23.570
  87.580	     33.33	    16.667
  87.600	     41.67	    18.634
  87.620	     50.00	    20.412
  87.640	     66.67	    23.570
  87.660	     66.67	    23.570
  87.680	     66.67	    23.570
  87.700	     16.67	    11.785
  87.720	     16.67	    11.785
  87.740	     25.00	    14.434
  87.760	     91.67	    27.639
  87.780	    100.00	    28.868
  87.800	     66.67	    23.570
  87.820	     58.33	    22.048
  87.840	     25.00	    14.434
  87.860	     50.00	    20.412
  87.880	     33.33	    16.667
  87.900	     41.67	    18.634
  87.920	     75.00	    25.000
  87.940	     83.33	    26.352
  87.960	     83.33	    26.352
  87.980	    100.00	    28.868
  88.000	    100.00	    28.868
  88.020	    108.33	    30.046
  88.040	     83.33	    26.352
  88.060	     83.33	    26.352
  88.080	     66.67	    23.570
  88.100	     91.67	    27.639
  88.120	    100.00	    28.868
  88.140	     75.00	    25.000
  88.160	     75.00	    25.000
  88.180	     75.00	    25.000
  88.200	     66.67	    23.570
  88.220	     66.67	    23.570
  88.240	     58.33	    22.048
  88.260	     66.67	    23.570
  88.280	    108.33	    30.046
  88.300	    100.00	    28.868
  88.320	    108.33	    30.046
  88.340	     91.67	    27.639
  88.360	     66.67	    23.570
  88.380	     58.33	    22.048
  88.400	     41.67	    18.634
  88.420	     41.67	    18.634
  88.440	     66.67	    23.570
  88.460	     25.00	    14.434
  88.480	     58.33	    22.048
  88.500	     58.33	    22.048
  88.520	     25.00	    14.434
  88.540	     75.00	    25.000
  88.560	     75.00	    25.000
  88.580	     75.00	    25.000
  88.600	     66.67	    23.570
  88.620	     91.67	    27.639
  88.640	    125.00	    32.275
  88.660	    116.67	    31.180
  88.680	    133.33	    33.333
  88.700	    108.33	    30.046
  88.720	    100.00	    28.868
  88.740	     91.67	    27.639
  88.760	    100.00	    28.868
  88.780	    108.33	    30.046
  88.800	     91.67	    27.639
  88.820	     83.33	    26.352
  88.840	     83.33	    26.352
  88.860	    100.00	    28.868
  88.880	     25.00	    14.434
  88.900	     83.33	    26.352
  88.920	     66.67	    23.570
  88.940	     83.33	    26.352
  88.960	     66.67	    23.570
  88.980	    116.67	    31.180
  89.000	    100.00	    28.868
  89.020	     83.33	    26.352
  89.040	     91.67	    27.639
  89.060	    100.00	    28.868
  89.080	     66.67	    23.570
  89.100	     66.67	    23.570
  89.120	     50.00	    20.412
  89.140	     58.33	    22.048
  89.160	     75.00	    25.000
  89.180	    116.67	    31.180
  89.200	     58.33	    22.048
  89.220	     58.33	    22.048
  89.240	     83.33	    26.352
  89.260	     41.67	    18.634
  89.280	     41.67	    18.634
  89.300	     83.33	    26.352
  89.320	     25.00	    14.434
  89.340	     41.67	    18.634
  89.360	     66.67	    23.570
  89.380	     41.67	    18.634
  89.400	     91.67	    27.639
  89.420	     33.33	    16.667
  89.440	     58.33	    22.048
  89.460	     75.00	    25.000
  89.480	     33.33	    16.667
  89.500	     75.00	    25.000
  89.520	     41.67	    18.634
  89.540	     58.33	    22.048
  89.560	    100.00	    28.868
  89.580	     75.00	    25.000
  89.600	     66.67	    23.570
  89.620	     50.00	    20.412
  89.640	    100.00	    28.868
  89.660	     66.67	    23.570
  89.680	     41.67	    18.634
  89.700	     41.67	    18.634
  89.720	     41.67	    18.634
  89.740	     33.33	    16.667
  89.760	     66.67	    23.570
  89.780	     41.67	    18.634
  89.800	     50.00	    20.412
  89.820	     33.33	    16.667
  89.840	     50.00	    20.412
  89.860	     50.00	    20.412
  89.880	     33.33	    16.667
  89.900	     33.33	    16.667
  89.920	     41.67	    18.634
  89.940	     91.67	    27.639
  89.960	     58.33	    22.048
  89.980	     16.67	    11.785
  90.000	     58.33	    22.048
  90.020	     25.00	    14.434
  90.040	     58.33	    22.048
  90.060	     58.33	    22.048
  90.080	     50.00	    20.412
  90.100	     66.67	    23.570
  90.120	     33.33	    16.667
  90.140	     33.33	    16.667
  90.160	     50.00	    20.412
  90.180	     75.00	    25.000
  90.200	     75.00	    25.000
  90.220	     33.33	    16.667
  90.240	     83.33	    26.352
  90.260	     75.00	    25.000
  90.280	     58.33	    22.048
  90.300	     83.33	    26.352
  90.320	     83.33	    26.352
  90.340	     41.67	    18.634
  90.360	     41.67	    18.634
  90.380	     50.00	    20.412
  90.400	     58.33	    22.048
  90.420	     50.00	    20.412
  90.440	     50.00	    20.412
  90.460	      0.00	     0.000
  90.480	     16.67	    11.785
  90.500	     83.33	    26.352
  90.520	     58.33	    22.048
  90.540	     58.33	    22.048
  90.560	     66.67	    23.570
  90.580	     33.33	    16.667
  90.600	     75.00	    25.000
  90.620	     91.67	    27.639
  90.640	     75.00	    25.000
  90.660	     25.00	    14.434
  90.680	      0.00	     0.000
  90.700	     41.67	    18.634
  90.720	     58.33	    22.048
  90.740	     66.67	    23.570
  90.760	     25.00	    14.434
  90.780	     91.67	    27.639
  90.800	     58.33	    22.048
  90.820	     75.00	    25.000
  90.840	     33.33	    16.667
  90.860	     41.67	    18.634
  90.880	     25.00	    14.434
  90.900	     16.67	    11.785
  90.920	     33.33	    16.667
  90.940	     33.33	    16.667
  90.960	     58.33	    22.048
  90.980	     25.00	    14.434
  91.000	     58.33	    22.048
  91.020	     33.33	    16.667
  91.040	     25.00	    14.434
  91.060	     25.00	    14.434
  91.080	     41.67	    18.634
  91.100	     58.33	    22.048
  91.120	     50.00	    20.412
  91.140	     41.67	    18.634
  91.160	     58.33	    22.048
  91.180	     75.00	    25.000
  91.200	     50.00	    20.412
  91.220	     41.67	    18.634
  91.240	     41.67	    18.634
  91.260	     33.33	    16.667
  91.280	     58.33	    22.048
  91.300	     25.00	    14.434
  91.320	     16.67	    11.785
  91.340	     58.33	    22.048
  91.360	     58.33	    22.048
  91.380	     58.33	    22.048
  91.400	     33.33	    16.667
  91.420	     33.33	    16.667
  91.440	     58.33	    22.048
  91.460	     16.67	    11.785
  91.480	     33.33	    16.667
  91.500	     41.67	    18.634
  91.520	     25.00	    14.434
  91.540	     16.67	    11.785
  91.560	     16.67	    11.785
  91.580	     66.67	    23.570
  91.600	     41.67	    18.634
  91.620	     25.00	    14.434
  91.640	     41.67	    18.634
  91.660	     58.33	    22.048
  91.680	      8.33	     8.333
  91.700	     50.00	    20.412
  91.720	     33.33	    16.667
  91.740	     41.67	    18.634
  91.760	     50.00	    20.412
  91.780	     58.33	    22.048
  91.800	     41.67	    18.634
  91.820	     25.00	    14.434
  91.840	     33.33	    16.667
  91.860	     33.33	    16.667
  91.880	     58.33	    22.048
  91.900	     33.33	    16.667
  91.920	     50.00	    20.412
  91.940	     66.67	    23.570
  91.960	     50.00	    20.412
  91.980	     41.67	    18.634
  92.000	     66.67	    23.570
  92.020	     41.67	    18.634
  92.040	     41.67	    18.634
  92.060	     58.33	    22.048
  92.080	     50.00	    20.412
  92.100	     25.00	    14.434
  92.120	     33.33	    16.667
  92.140	     41.67	    18.634
  92.160	     16.67	    11.785
  92.180	     66.67	    23.570
  92.200	     75.00	    25.000
  92.220	     58.33	    22.048
  92.240	     66.67	    23.570
  92.260	     33.33	    16.667
  92.280	     41.67	    18.634
  92.300	     33.33	    16.667
  92.320	     33.33	    16.667
  92.340	     50.00	    20.412
  92.360	     66.67	    23.570
  92.380	     41.67	    18.634
  92.400	     75.00	    25.000
  92.420	     41.67	    18.634
  92.440	     33.33	    16.667
  92.460	     33.33	    16.667
  92.480	     41.67	    18.634
  92.500	     91.67	    27.639
  92.520	     66.67	    23.570
  92.540	     33.33	    16.667
  92.560	     75.00	    25.000
  92.580	     50.00	    20.412
  92.600	      8.33	     8.333
  92.620	     25.00	    14.434
  92.640	     33.33	    16.667
  92.660	     33.33	    16.667
  92.680	     16.67	    11.785
  92.700	     58.33	    22.048
  92.720	     41.67	    18.634
  92.740	     50.00	    20.412
  92.760	     33.33	    16.667
  92.780	     16.67	    11.785
  92.800	     50.00	    20.412
  92.820	     58.33	    22.048
  92.840	     58.33	    22.048
  92.860	     41.67	    18.634
  92.880	     75.00	    25.000
  92.900	     66.67	    23.570
  92.920	     75.00	    25.000
  92.940	     41.67	    18.634
  92.960	     41.67	    18.634
  92.980	     75.00	    25.000
  93.000	     75.00	    25.000
  93.020	     50.00	    20.412
  93.040	    116.67	    31.180
  93.060	     83.33	    26.352
  93.080	     50.00	    20.412
  93.100	     91.67	    27.639
  93.120	     41.67	    18.634
  93.140	     66.67	    23.570
  93.160	     50.00	    20.412
  93.180	     66.67	    23.570
  93.200	     58.33	    22.048
  93.220	    100.00	    28.868
  93.240	     83.33	    26.352
  93.260	     33.33	    16.667
  93.280	     66.67	    23.570
  93.300	     41.67	    18.634
  93.320	    100.00	    28.868
  93.340	    108.33	    30.046
  93.360	    100.00	    28.868
  93.380	     50.00	    20.412
  93.400	     66.67	    23.570
  93.420	     41.67	    18.634
  93.440	     25.00	    14.434
  93.460	     75.00	    25.000
  93.480	     58.33	    22.048
  93.500	     75.00	    25.000
  93.520	     83.33	    26.352
  93.540	     25.00	    14.434
  93.560	     41.67	    18.634
  93.580	     75.00	    25.000
  93.600	     50.00	    20.412
  93.620	     41.67	    18.634
  93.640	    100.00	    28.868
  93.660	     83.33	    26.352
  93.680	     16.67	    11.785
  93.700	     33.33	    16.667
  93.720	     66.67	    23.570
  93.740	     16.67	    11.785
  93.760	     25.00	    14.434
  93.780	    100.00	    28.868
  93.800	     58.33	    22.048
  93.820	     33.33	    16.667
  93.840	     33.33	    16.667
  93.860	     50.00	    20.412
  93.880	     41.67	    18.634
  93.900	     25.00	    14.434
  93.920	     50.00	    20.412
  93.940	     50.00	    20.412
  93.960	     41.67	    18.634
  93.980	     50.00	    20.412
  94.000	     58.33	    22.048
  94.020	     33.33	    16.667
  94.040	     25.00	    14.434
  94.060	     58.33	    22.048
  94.080	     66.67	    23.570
  94.100	     41.67	    18.634
  94.120	     25.00	    14.434
  94.140	     41.67	    18.634
  94.160	     25.00	    14.434
  94.180	     66.67	    23.570
  94.200	     66.67	    23.570
  94.220	     66.67	    23.570
  94.240	     41.67	    18.634
  94.260	      8.33	     8.333
  94.280	     50.00	    20.412
  94.300	     50.00	    20.412
  94.320	     16.67	    11.785
  94.340	     58.33	    22.048
  94.360	     25.00	    14.434
  94.380	     58.33	    22.048
  94.400	     41.67	    18.634
  94.420	      8.33	     8.333
  94.440	     58.33	    22.048
  94.460	     66.67	    23.570
  94.480	     83.33	    26.352
  94.500	     50.00	    20.412
  94.520	     33.33	    16.667
  94.540	     91.67	    27.639
  94.560	     41.67	    18.634
  94.580	     33.33	    16.667
  94.600	     33.33	    16.667
  94.620	     50.00	    20.412
  94.640	     41.67	    18.634
  94.660	     33.33	    16.667
  94.680	     33.33	    16.667
  94.700	     41.67	    18.634
  94.720	     66.67	    23.570
  94.740	     58.33	    22.048
  94.760	     83.33	    26.352
  94.780	     50.00	    20.412
  94.800	     66.67	    23.570
  94.820	     58.33	    22.048
  94.840	     41.67	    18.634
  94.860	     66.67	    23.570
  94.880	     50.00	    20.412
  94.900	     58.33	    22.048
  94.920	     58.33	    22.048
  94.940	     33.33	    16.667
  94.960	     50.00	    20.412
  94.980	     66.67	    23.570
  95.000	     50.00	    20.412
  95.020	     83.33	    26.352
  95.040	     33.33	    16.667
  95.060	     33.33	    16.667
  95.080	     58.33	    22.048
  95.100	     75.00	    25.000
  95.120	     75.00	    25.000
  95.140	     66.67	    23.570
  95.160	     33.33	    16.667
  95.180	     50.00	    20.412
  95.200	     83.33	    26.352
  95.220	     83.33	    26.352
  95.240	     66.67	    23.570
  95.260	     58.33	    22.048
  95.280	     58.33	    22.048
  95.300	     33.33	    16.667
  95.320	    133.33	    33.333
  95.340	     75.00	    25.000
  95.360	     91.67	    27.639
  95.380	     41.67	    18.634
  95.400	     58.33	    22.048
  95.420	     41.67	    18.634
  95.440	     91.67	    27.639
  95.460	     50.00	    20.412
  95.480	    133.33	    33.333
  95.500	     33.33	    16.667
  95.520	     75.00	    25.000
  95.540	     83.33	    26.352
  95.560	     66.67	    23.570
  95.580	     75.00	    25.000
  95.600	     75.00	    25.000
  95.620	     58.33	    22.048
  95.640	     66.67	    23.570
  95.660	     33.33	    16.667
  95.680	     25.00	    14.434
  95.700	     58.33	    22.048
  95.720	     66.67	    23.570
  95.740	     50.00	    20.412
  95.760	     66.67	    23.570
  95.780	     33.33	    16.667
  95.800	     41.67	    18.634
  95.820	     33.33	    16.667
  95.840	     16.67	    11.785
  95.860	     41.67	    18.634
  95.880	     41.67	    18.634
  95.900	     58.33	    22.048
  95.920	     16.67	    11.785
  95.940	     50.00	    20.412
  95.960	     41.67	    18.634
  95.980	     33.33	    16.667
  96.000	     50.00	    20.412
  96.020	     91.67	    27.639
  96.040	     33.33	    16.667
  96.060	     75.00	    25.000
  96.080	     75.00	    25.000
  96.100	     25.00	    14.434
  96.120	     66.67	    23.570
  96.140	     66.67	    23.570
  96.160	     66.67	    23.570
  96.180	     66.67	    23.570
  96.200	     41.67	    18.634
  96.220	     91.67	    27.639
  96.240	     66.67	    23.570
  96.260	     50.00	    20.412
  96.280	     41.67	    18.634
  96.300	     25.00	    14.434
  96.320	     33.33	    16.667
  96.340	     83.33	    26.352
  96.360	     33.33	    16.667
  96.380	     33.33	    16.667
  96.400	     66.67	    23.570
  96.420	     75.00	    25.000
  96.440	     41.67	    18.634
  96.460	     50.00	    20.412
  96.480	     66.67	    23.570
  96.500	     58.33	    22.048
  96.520	     91.67	    27.639
  96.540	     58.33	    22.048
  96.560	     66.67	    23.570
  96.580	     83.33	    26.352
  96.600	     91.67	    27.639
  96.620	     58.33	    22.048
  96.640	     50.00	    20.412
  96.660	     25.00	    14.434
  96.680	     41.67	    18.634
  96.700	     41.67	    18.634
  96.720	     58.33	    22.048
  96.740	     50.00	    20.412
  96.760	     25.00	    14.434
  96.780	     33.33	    16.667
  96.800	     58.33	    22.048
  96.820	     41.67	    18.634
  96.840	     58.33	    22.048
  96.860	     75.00	    25.000
  96.880	     50.00	    20.412
  96.900	     33.33	    16.667
  96.920	     41.67	    18.634
  96.940	     58.33	    22.048
  96.960	     50.00	    20.412
  96.980	     66.67	    23.570
  97.000	     41.67	    18.634
  97.020	     41.67	    18.634
  97.040	     41.67	    18.634
  97.060	     66.67	    23.570
  97.080	     75.00	    25.000
  97.100	     66.67	    23.570
  97.120	     33.33	    16.667
  97.140	     58.33	    22.048
  97.160	     83.33	    26.352
  97.180	     58.33	    22.048
  97.200	     75.00	    25.000
  97.220	     50.00	    20.412
  97.240	     33.33	    16.667
  97.260	     25.00	    14.434
  97.280	     33.33	    16.667
  97.300	     25.00	    14.434
  97.320	     25.00	    14.434
  97.340	     41.67	    18.634
  97.360	     33.33	    16.667
  97.380	     33.33	    16.667
  97.400	     41.67	    18.634
  97.420	     58.33	    22.048
  97.440	     75.00	    25.000
  97.460	     50.00	    20.412
  97.480	     50.00	    20.412
  97.500	     25.00	    14.434
  97.520	     16.67	    11.785
  97.540	     58.33	    22.048
  97.560	     66.67	    23.570
  97.580	     25.00	    14.434
  97.600	     41.67	    18.634
  97.620	     25.00	    14.434
  97.640	     41.67	    18.634
  97.660	     50.00	    20.412
  97.680	     41.67	    18.634
  97.700	     83.33	    26.352
  97.720	     50.00	    20.412
  97.740	     16.67	    11.785
  97.760	     25.00	    14.434
  97.780	     58.33	    22.048
  97.800	     41.67	    18.634
  97.820	     75.00	    25.000
  97.840	     75.00	    25.000
  97.860	     50.00	    20.412
  97.880	     50.00	    20.412
  97.900	     50.00	    20.412
  97.920	     50.00	    20.412
  97.940	     41.67	    18.634
  97.960	     33.33	    16.667
  97.980	     50.00	    20.412
  98.000	     58.33	    22.048
  98.020	     33.33	    16.667
  98.040	     75.00	    25.000
  98.060	     16.67	    11.785
  98.080	     50.00	    20.412
  98.100	     41.67	    18.634
  98.120	     50.00	    20.412
  98.140	     25.00	    14.434
  98.160	     50.00	    20.412
  98.180	     41.67	    18.634
  98.200	     41.67	    18.634
  98.220	     66.67	    23.570
  98.240	     58.33	    22.048
  98.260	     50.00	    20.412
  98.280	     66.67	    23.570
  98.300	     91.67	    27.639
  98.320	     41.67	    18.634
  98.340	     41.67	    18.634
  98.360	     25.00	    14.434
  98.380	     16.67	    11.785
  98.400	     41.67	    18.634
  98.420	     41.67	    18.634
  98.440	     41.67	    18.634
  98.460	     41.67	    18.634
  98.480	     33.33	    16.667
  98.500	     75.00	    25.000
  98.520	     33.33	    16.667
  98.540	     50.00	    20.412
  98.560	     41.67	    18.634
  98.580	     33.33	    16.667
  98.600	     66.67	    23.570
  98.620	     41.67	    18.634
  98.640	     83.33	    26.352
  98.660	    100.00	    28.868
  98.680	     58.33	    22.048
  98.700	     58.33	    22.048
  98.720	     33.33	    16.667
  98.740	     66.67	    23.570
  98.760	     25.00	    14.434
  98.780	     58.33	    22.048
  98.800	     50.00	    20.412
  98.820	    100.00	    28.868
  98.840	     75.00	    25.000
  98.860	     91.67	    27.639
  98.880	     25.00	    14.434
  98.900	     41.67	    18.634
  98.920	     50.00	    20.412
  98.940	     58.33	    22.048
  98.960	     75.00	    25.000
  98.980	     58.33	    22.048
  99.000	     50.00	    20.412
  99.020	     25.00	    14.434
  99.040	     66.67	    23.570
  99.060	     83.33	    26.352
  99.080	     50.00	    20.412
  99.100	     25.00	    14.434
  99.120	     33.33	    16.667
  99.140	     41.67	    18.634
  99.160	     41.67	    18.634
  99.180	     66.67	    23.570
  99.200	     58.33	    22.048
  99.220	     83.33	    26.352
  99.240	     91.67	    27.639
  99.260	     33.33	    16.667
  99.280	     66.67	    23.570
  99.300	     91.67	    27.639
  99.320	     58.33	    22.048
  99.340	     66.67	    23.570
  99.360	     50.00	    20.412
  99.380	     58.33	    22.048
  99.400	     58.33	    22.048
  99.420	     66.67	    23.570
  99.440	     50.00	    20.412
  99.460	     41.67	    18.634
  99.480	     33.33	    16.667
  99.500	     75.00	    25.000
  99.520	     75.00	    25.000
  99.540	     83.33	    26.352
  99.560	     50.00	    20.412
  99.580	     75.00	    25.000
  99.600	     66.67	    23.570
  99.620	     50.00	    20.412
  99.640	     58.33	    22.048
  99.660	     41.67	    18.634
  99.680	     58.33	    22.048
  99.700	     58.33	    22.048
  99.720	     50.00	    20.412
  99.740	     58.33	    22.048
  99.760	     50.00	    20.412
  99.780	     50.00	    20.412
  99.800	     75.00	    25.000
  99.820	     66.67	    23.570
  99.840	     91.67	    27.639
  99.860	     50.00	    20.412
  99.880	     75.00	    25.000
  99.900	     41.67	    18.634
  99.920	     50.00	    20.412
  99.940	     58.33	    22.048
  99.960	     66.67	    23.570
  99.980	     33.33	    16.667
 100.000	     75.00	    25.000
