         ID: 

    Comment: 

Scan Type: Normal
Start Angle: 5 deg.
Stop Angle: 100 deg.
Num Points: 4751
Step Size: 0.02 deg.
Datafile Res: 1600 
Scan Rate: 10.000000
Scan Mode: Continuous
Wavelength: 1.540562

Diffractometer Optics:
		Detector:
			 Type: Fixed Slits
			 X2 Configuration: No
		Tube: 
			 Type: Fixed Slits
			 X2 Configuration: No


Axis[0]
	 Selected   : no 
	 Iterative  : no 
	 Start Angle: 0.000000 
	 Stop Angle : 0.000000 
	 Step Size  : 0.000000 
	 Oscillating: no 

Axis[1]
	 Selected   : no 
	 Iterative  : no 
	 Start Angle: 0.000000 
	 Stop Angle : 0.000000 
	 Step Size  : 0.000000 
	 Oscillating: no 

Axis[2]
	 Selected   : no 
	 Iterative  : no 
	 Start Angle: 0.000000 
	 Stop Angle : 0.000000 
	 Step Size  : 0.000000 
	 Oscillating: no 

Axis[3]
	 Selected   : no 
	 Iterative  : no 
	 Start Angle: 0.000000 
	 Stop Angle : 0.000000 
	 Step Size  : 0.000000 
	 Oscillating: no 

Axis[4]
	 Selected   : no 
	 Iterative  : no 
	 Start Angle: 0.000000 
	 Stop Angle : 0.000000 
	 Step Size  : 0.000000 
	 Oscillating: no 

Axis[5]
	 Selected   : no 
	 Iterative  : no 
	 Start Angle: 0.000000 
	 Stop Angle : 0.000000 
	 Step Size  : 0.000000 
	 Oscillating: no 

Axis[6]
	 Selected   : no 
	 Iterative  : no 
	 Start Angle: 0.000000 
	 Stop Angle : 0.000000 
	 Step Size  : 0.000000 
	 Oscillating: no 

Axis[7]
	 Selected   : no 
	 Iterative  : no 
	 Start Angle: 0.000000 
	 Stop Angle : 0.000000 
	 Step Size  : 0.000000 
	 Oscillating: no 

Axis[8]
	 Selected   : no 
	 Iterative  : no 
	 Start Angle: 0.000000 
	 Stop Angle : 0.000000 
	 Step Size  : 0.000000 
	 Oscillating: no 

Axis[9]
	 Selected   : no 
	 Iterative  : no 
	 Start Angle: 0.000000 
	 Stop Angle : 0.000000 
	 Step Size  : 0.000000 
	 Oscillating: no 




	   Deg.      CPS  	    ESD   

Range 0
   5.000	    241.67	    44.876
   5.020	    300.00	    50.000
   5.040	    258.33	    46.398
   5.060	    266.67	    47.140
   5.080	    225.00	    43.301
   5.100	    308.33	    50.690
   5.120	    225.00	    43.301
   5.140	    383.33	    56.519
   5.160	    300.00	    50.000
   5.180	    241.67	    44.876
   5.200	    258.33	    46.398
   5.220	    216.67	    42.492
   5.240	    241.67	    44.876
   5.260	    191.67	    39.965
   5.280	    283.33	    48.591
   5.300	    308.33	    50.690
   5.320	    283.33	    48.591
   5.340	    258.33	    46.398
   5.360	    300.00	    50.000
   5.380	    241.67	    44.876
   5.400	    266.67	    47.140
   5.420	    250.00	    45.644
   5.440	    275.00	    47.871
   5.460	    208.33	    41.667
   5.480	    233.33	    44.096
   5.500	    266.67	    47.140
   5.520	    283.33	    48.591
   5.540	    258.33	    46.398
   5.560	    233.33	    44.096
   5.580	    225.00	    43.301
   5.600	    316.67	    51.370
   5.620	    200.00	    40.825
   5.640	    216.67	    42.492
   5.660	    266.67	    47.140
   5.680	    200.00	    40.825
   5.700	    291.67	    49.301
   5.720	    308.33	    50.690
   5.740	    200.00	    40.825
   5.760	    316.67	    51.370
   5.780	    200.00	    40.825
   5.800	    258.33	    46.398
   5.820	    275.00	    47.871
   5.840	    208.33	    41.667
   5.860	    250.00	    45.644
   5.880	    233.33	    44.096
   5.900	    283.33	    48.591
   5.920	    258.33	    46.398
   5.940	    300.00	    50.000
   5.960	    250.00	    45.644
   5.980	    275.00	    47.871
   6.000	    358.33	    54.645
   6.020	    200.00	    40.825
   6.040	    250.00	    45.644
   6.060	    241.67	    44.876
   6.080	    241.67	    44.876
   6.100	    258.33	    46.398
   6.120	    150.00	    35.355
   6.140	    258.33	    46.398
   6.160	    225.00	    43.301
   6.180	    200.00	    40.825
   6.200	    341.67	    53.359
   6.220	    258.33	    46.398
   6.240	    291.67	    49.301
   6.260	    191.67	    39.965
   6.280	    275.00	    47.871
   6.300	    266.67	    47.140
   6.320	    308.33	    50.690
   6.340	    341.67	    53.359
   6.360	    225.00	    43.301
   6.380	    225.00	    43.301
   6.400	    258.33	    46.398
   6.420	    258.33	    46.398
   6.440	    133.33	    33.333
   6.460	    275.00	    47.871
   6.480	    300.00	    50.000
   6.500	    333.33	    52.705
   6.520	    283.33	    48.591
   6.540	    266.67	    47.140
   6.560	    241.67	    44.876
   6.580	    233.33	    44.096
   6.600	    291.67	    49.301
   6.620	    291.67	    49.301
   6.640	    266.67	    47.140
   6.660	    191.67	    39.965
   6.680	    275.00	    47.871
   6.700	    233.33	    44.096
   6.720	    333.33	    52.705
   6.740	    208.33	    41.667
   6.760	    175.00	    38.188
   6.780	    233.33	    44.096
   6.800	    241.67	    44.876
   6.820	    250.00	    45.644
   6.840	    308.33	    50.690
   6.860	    216.67	    42.492
   6.880	    208.33	    41.667
   6.900	    183.33	    39.087
   6.920	    250.00	    45.644
   6.940	    275.00	    47.871
   6.960	    275.00	    47.871
   6.980	    225.00	    43.301
   7.000	    291.67	    49.301
   7.020	    291.67	    49.301
   7.040	    216.67	    42.492
   7.060	    258.33	    46.398
   7.080	    200.00	    40.825
   7.100	    191.67	    39.965
   7.120	    341.67	    53.359
   7.140	    308.33	    50.690
   7.160	    333.33	    52.705
   7.180	    183.33	    39.087
   7.200	    200.00	    40.825
   7.220	    225.00	    43.301
   7.240	    308.33	    50.690
   7.260	    183.33	    39.087
   7.280	    250.00	    45.644
   7.300	    300.00	    50.000
   7.320	    233.33	    44.096
   7.340	    183.33	    39.087
   7.360	    208.33	    41.667
   7.380	    216.67	    42.492
   7.400	    183.33	    39.087
   7.420	    208.33	    41.667
   7.440	    225.00	    43.301
   7.460	    291.67	    49.301
   7.480	    233.33	    44.096
   7.500	    183.33	    39.087
   7.520	    241.67	    44.876
   7.540	    200.00	    40.825
   7.560	    241.67	    44.876
   7.580	    166.67	    37.268
   7.600	    200.00	    40.825
   7.620	    316.67	    51.370
   7.640	    216.67	    42.492
   7.660	    233.33	    44.096
   7.680	    241.67	    44.876
   7.700	    150.00	    35.355
   7.720	    266.67	    47.140
   7.740	    208.33	    41.667
   7.760	    308.33	    50.690
   7.780	    308.33	    50.690
   7.800	    225.00	    43.301
   7.820	    208.33	    41.667
   7.840	    191.67	    39.965
   7.860	    250.00	    45.644
   7.880	    208.33	    41.667
   7.900	    266.67	    47.140
   7.920	    275.00	    47.871
   7.940	    208.33	    41.667
   7.960	    233.33	    44.096
   7.980	    308.33	    50.690
   8.000	    200.00	    40.825
   8.020	    266.67	    47.140
   8.040	    250.00	    45.644
   8.060	    208.33	    41.667
   8.080	    241.67	    44.876
   8.100	    250.00	    45.644
   8.120	    250.00	    45.644
   8.140	    158.33	    36.324
   8.160	    250.00	    45.644
   8.180	    166.67	    37.268
   8.200	    300.00	    50.000
   8.220	    291.67	    49.301
   8.240	    250.00	    45.644
   8.260	    208.33	    41.667
   8.280	    250.00	    45.644
   8.300	    216.67	    42.492
   8.320	    216.67	    42.492
   8.340	    266.67	    47.140
   8.360	    250.00	    45.644
   8.380	    241.67	    44.876
   8.400	    391.67	    57.130
   8.420	    266.67	    47.140
   8.440	    183.33	    39.087
   8.460	    225.00	    43.301
   8.480	    275.00	    47.871
   8.500	    250.00	    45.644
   8.520	    225.00	    43.301
   8.540	    333.33	    52.705
   8.560	    316.67	    51.370
   8.580	    200.00	    40.825
   8.600	    300.00	    50.000
   8.620	    233.33	    44.096
   8.640	    266.67	    47.140
   8.660	    250.00	    45.644
   8.680	    325.00	    52.042
   8.700	    208.33	    41.667
   8.720	    275.00	    47.871
   8.740	    216.67	    42.492
   8.760	    200.00	    40.825
   8.780	    241.67	    44.876
   8.800	    258.33	    46.398
   8.820	    216.67	    42.492
   8.840	    241.67	    44.876
   8.860	    341.67	    53.359
   8.880	    216.67	    42.492
   8.900	    300.00	    50.000
   8.920	    258.33	    46.398
   8.940	    225.00	    43.301
   8.960	    258.33	    46.398
   8.980	    291.67	    49.301
   9.000	    225.00	    43.301
   9.020	    266.67	    47.140
   9.040	    233.33	    44.096
   9.060	    200.00	    40.825
   9.080	    200.00	    40.825
   9.100	    300.00	    50.000
   9.120	    183.33	    39.087
   9.140	    225.00	    43.301
   9.160	    216.67	    42.492
   9.180	    341.67	    53.359
   9.200	    216.67	    42.492
   9.220	    308.33	    50.690
   9.240	    266.67	    47.140
   9.260	    241.67	    44.876
   9.280	    275.00	    47.871
   9.300	    166.67	    37.268
   9.320	    300.00	    50.000
   9.340	    233.33	    44.096
   9.360	    208.33	    41.667
   9.380	    266.67	    47.140
   9.400	    283.33	    48.591
   9.420	    283.33	    48.591
   9.440	    283.33	    48.591
   9.460	    283.33	    48.591
   9.480	    225.00	    43.301
   9.500	    191.67	    39.965
   9.520	    175.00	    38.188
   9.540	    250.00	    45.644
   9.560	    266.67	    47.140
   9.580	    250.00	    45.644
   9.600	    200.00	    40.825
   9.620	    233.33	    44.096
   9.640	    258.33	    46.398
   9.660	    316.67	    51.370
   9.680	    266.67	    47.140
   9.700	    233.33	    44.096
   9.720	    241.67	    44.876
   9.740	    316.67	    51.370
   9.760	    283.33	    48.591
   9.780	    158.33	    36.324
   9.800	    266.67	    47.140
   9.820	    250.00	    45.644
   9.840	    300.00	    50.000
   9.860	    275.00	    47.871
   9.880	    275.00	    47.871
   9.900	    233.33	    44.096
   9.920	    266.67	    47.140
   9.940	    208.33	    41.667
   9.960	    216.67	    42.492
   9.980	    258.33	    46.398
  10.000	    241.67	    44.876
  10.020	    291.67	    49.301
  10.040	    275.00	    47.871
  10.060	    191.67	    39.965
  10.080	    283.33	    48.591
  10.100	    358.33	    54.645
  10.120	    250.00	    45.644
  10.140	    300.00	    50.000
  10.160	    291.67	    49.301
  10.180	    241.67	    44.876
  10.200	    316.67	    51.370
  10.220	    325.00	    52.042
  10.240	    208.33	    41.667
  10.260	    241.67	    44.876
  10.280	    225.00	    43.301
  10.300	    300.00	    50.000
  10.320	    291.67	    49.301
  10.340	    275.00	    47.871
  10.360	    258.33	    46.398
  10.380	    216.67	    42.492
  10.400	    300.00	    50.000
  10.420	    308.33	    50.690
  10.440	    266.67	    47.140
  10.460	    325.00	    52.042
  10.480	    291.67	    49.301
  10.500	    316.67	    51.370
  10.520	    350.00	    54.006
  10.540	    366.67	    55.277
  10.560	    216.67	    42.492
  10.580	    241.67	    44.876
  10.600	    366.67	    55.277
  10.620	    133.33	    33.333
  10.640	    266.67	    47.140
  10.660	    216.67	    42.492
  10.680	    191.67	    39.965
  10.700	    275.00	    47.871
  10.720	    275.00	    47.871
  10.740	    266.67	    47.140
  10.760	    316.67	    51.370
  10.780	    266.67	    47.140
  10.800	    216.67	    42.492
  10.820	    308.33	    50.690
  10.840	    275.00	    47.871
  10.860	    275.00	    47.871
  10.880	    300.00	    50.000
  10.900	    208.33	    41.667
  10.920	    225.00	    43.301
  10.940	    208.33	    41.667
  10.960	    308.33	    50.690
  10.980	    250.00	    45.644
  11.000	    308.33	    50.690
  11.020	    283.33	    48.591
  11.040	    150.00	    35.355
  11.060	    275.00	    47.871
  11.080	    383.33	    56.519
  11.100	    291.67	    49.301
  11.120	    308.33	    50.690
  11.140	    316.67	    51.370
  11.160	    225.00	    43.301
  11.180	    250.00	    45.644
  11.200	    258.33	    46.398
  11.220	    233.33	    44.096
  11.240	    291.67	    49.301
  11.260	    208.33	    41.667
  11.280	    250.00	    45.644
  11.300	    233.33	    44.096
  11.320	    241.67	    44.876
  11.340	    241.67	    44.876
  11.360	    225.00	    43.301
  11.380	    216.67	    42.492
  11.400	    258.33	    46.398
  11.420	    283.33	    48.591
  11.440	    266.67	    47.140
  11.460	    325.00	    52.042
  11.480	    291.67	    49.301
  11.500	    308.33	    50.690
  11.520	    366.67	    55.277
  11.540	    275.00	    47.871
  11.560	    258.33	    46.398
  11.580	    216.67	    42.492
  11.600	    241.67	    44.876
  11.620	    325.00	    52.042
  11.640	    325.00	    52.042
  11.660	    275.00	    47.871
  11.680	    358.33	    54.645
  11.700	    200.00	    40.825
  11.720	    325.00	    52.042
  11.740	    233.33	    44.096
  11.760	    316.67	    51.370
  11.780	    333.33	    52.705
  11.800	    225.00	    43.301
  11.820	    400.00	    57.735
  11.840	    233.33	    44.096
  11.860	    241.67	    44.876
  11.880	    291.67	    49.301
  11.900	    358.33	    54.645
  11.920	    341.67	    53.359
  11.940	    275.00	    47.871
  11.960	    208.33	    41.667
  11.980	    250.00	    45.644
  12.000	    300.00	    50.000
  12.020	    283.33	    48.591
  12.040	    325.00	    52.042
  12.060	    258.33	    46.398
  12.080	    225.00	    43.301
  12.100	    275.00	    47.871
  12.120	    216.67	    42.492
  12.140	    300.00	    50.000
  12.160	    333.33	    52.705
  12.180	    208.33	    41.667
  12.200	    333.33	    52.705
  12.220	    308.33	    50.690
  12.240	    216.67	    42.492
  12.260	    283.33	    48.591
  12.280	    283.33	    48.591
  12.300	    250.00	    45.644
  12.320	    400.00	    57.735
  12.340	    258.33	    46.398
  12.360	    233.33	    44.096
  12.380	    291.67	    49.301
  12.400	    191.67	    39.965
  12.420	    291.67	    49.301
  12.440	    316.67	    51.370
  12.460	    283.33	    48.591
  12.480	    383.33	    56.519
  12.500	    291.67	    49.301
  12.520	    258.33	    46.398
  12.540	    291.67	    49.301
  12.560	    216.67	    42.492
  12.580	    208.33	    41.667
  12.600	    225.00	    43.301
  12.620	    341.67	    53.359
  12.640	    258.33	    46.398
  12.660	    241.67	    44.876
  12.680	    316.67	    51.370
  12.700	    241.67	    44.876
  12.720	    300.00	    50.000
  12.740	    308.33	    50.690
  12.760	    266.67	    47.140
  12.780	    366.67	    55.277
  12.800	    283.33	    48.591
  12.820	    308.33	    50.690
  12.840	    325.00	    52.042
  12.860	    233.33	    44.096
  12.880	    300.00	    50.000
  12.900	    283.33	    48.591
  12.920	    325.00	    52.042
  12.940	    275.00	    47.871
  12.960	    258.33	    46.398
  12.980	    308.33	    50.690
  13.000	    291.67	    49.301
  13.020	    275.00	    47.871
  13.040	    225.00	    43.301
  13.060	    308.33	    50.690
  13.080	    283.33	    48.591
  13.100	    325.00	    52.042
  13.120	    208.33	    41.667
  13.140	    258.33	    46.398
  13.160	    366.67	    55.277
  13.180	    183.33	    39.087
  13.200	    358.33	    54.645
  13.220	    258.33	    46.398
  13.240	    158.33	    36.324
  13.260	    341.67	    53.359
  13.280	    325.00	    52.042
  13.300	    358.33	    54.645
  13.320	    300.00	    50.000
  13.340	    350.00	    54.006
  13.360	    316.67	    51.370
  13.380	    275.00	    47.871
  13.400	    283.33	    48.591
  13.420	    375.00	    55.902
  13.440	    283.33	    48.591
  13.460	    258.33	    46.398
  13.480	    391.67	    57.130
  13.500	    275.00	    47.871
  13.520	    258.33	    46.398
  13.540	    291.67	    49.301
  13.560	    350.00	    54.006
  13.580	    375.00	    55.902
  13.600	    258.33	    46.398
  13.620	    325.00	    52.042
  13.640	    283.33	    48.591
  13.660	    275.00	    47.871
  13.680	    308.33	    50.690
  13.700	    283.33	    48.591
  13.720	    316.67	    51.370
  13.740	    325.00	    52.042
  13.760	    308.33	    50.690
  13.780	    375.00	    55.902
  13.800	    283.33	    48.591
  13.820	    250.00	    45.644
  13.840	    266.67	    47.140
  13.860	    241.67	    44.876
  13.880	    300.00	    50.000
  13.900	    241.67	    44.876
  13.920	    266.67	    47.140
  13.940	    383.33	    56.519
  13.960	    258.33	    46.398
  13.980	    375.00	    55.902
  14.000	    325.00	    52.042
  14.020	    350.00	    54.006
  14.040	    225.00	    43.301
  14.060	    283.33	    48.591
  14.080	    383.33	    56.519
  14.100	    300.00	    50.000
  14.120	    425.00	    59.512
  14.140	    400.00	    57.735
  14.160	    333.33	    52.705
  14.180	    225.00	    43.301
  14.200	    358.33	    54.645
  14.220	    358.33	    54.645
  14.240	    325.00	    52.042
  14.260	    333.33	    52.705
  14.280	    250.00	    45.644
  14.300	    308.33	    50.690
  14.320	    333.33	    52.705
  14.340	    350.00	    54.006
  14.360	    283.33	    48.591
  14.380	    391.67	    57.130
  14.400	    325.00	    52.042
  14.420	    208.33	    41.667
  14.440	    250.00	    45.644
  14.460	    433.33	    60.093
  14.480	    400.00	    57.735
  14.500	    308.33	    50.690
  14.520	    341.67	    53.359
  14.540	    358.33	    54.645
  14.560	    366.67	    55.277
  14.580	    358.33	    54.645
  14.600	    316.67	    51.370
  14.620	    183.33	    39.087
  14.640	    283.33	    48.591
  14.660	    283.33	    48.591
  14.680	    275.00	    47.871
  14.700	    316.67	    51.370
  14.720	    375.00	    55.902
  14.740	    391.67	    57.130
  14.760	    291.67	    49.301
  14.780	    283.33	    48.591
  14.800	    350.00	    54.006
  14.820	    266.67	    47.140
  14.840	    283.33	    48.591
  14.860	    241.67	    44.876
  14.880	    333.33	    52.705
  14.900	    283.33	    48.591
  14.920	    266.67	    47.140
  14.940	    241.67	    44.876
  14.960	    325.00	    52.042
  14.980	    250.00	    45.644
  15.000	    366.67	    55.277
  15.020	    216.67	    42.492
  15.040	    400.00	    57.735
  15.060	    308.33	    50.690
  15.080	    283.33	    48.591
  15.100	    350.00	    54.006
  15.120	    291.67	    49.301
  15.140	    358.33	    54.645
  15.160	    350.00	    54.006
  15.180	    308.33	    50.690
  15.200	    283.33	    48.591
  15.220	    308.33	    50.690
  15.240	    300.00	    50.000
  15.260	    408.33	    58.333
  15.280	    300.00	    50.000
  15.300	    275.00	    47.871
  15.320	    241.67	    44.876
  15.340	    291.67	    49.301
  15.360	    308.33	    50.690
  15.380	    300.00	    50.000
  15.400	    350.00	    54.006
  15.420	    341.67	    53.359
  15.440	    416.67	    58.926
  15.460	    266.67	    47.140
  15.480	    316.67	    51.370
  15.500	    308.33	    50.690
  15.520	    350.00	    54.006
  15.540	    341.67	    53.359
  15.560	    433.33	    60.093
  15.580	    316.67	    51.370
  15.600	    250.00	    45.644
  15.620	    408.33	    58.333
  15.640	    291.67	    49.301
  15.660	    341.67	    53.359
  15.680	    325.00	    52.042
  15.700	    250.00	    45.644
  15.720	    291.67	    49.301
  15.740	    291.67	    49.301
  15.760	    425.00	    59.512
  15.780	    425.00	    59.512
  15.800	    358.33	    54.645
  15.820	    291.67	    49.301
  15.840	    333.33	    52.705
  15.860	    408.33	    58.333
  15.880	    258.33	    46.398
  15.900	    358.33	    54.645
  15.920	    341.67	    53.359
  15.940	    333.33	    52.705
  15.960	    308.33	    50.690
  15.980	    450.00	    61.237
  16.000	    383.33	    56.519
  16.020	    250.00	    45.644
  16.040	    366.67	    55.277
  16.060	    400.00	    57.735
  16.080	    283.33	    48.591
  16.100	    333.33	    52.705
  16.120	    391.67	    57.130
  16.140	    366.67	    55.277
  16.160	    275.00	    47.871
  16.180	    291.67	    49.301
  16.200	    325.00	    52.042
  16.220	    325.00	    52.042
  16.240	    233.33	    44.096
  16.260	    350.00	    54.006
  16.280	    400.00	    57.735
  16.300	    325.00	    52.042
  16.320	    358.33	    54.645
  16.340	    350.00	    54.006
  16.360	    291.67	    49.301
  16.380	    341.67	    53.359
  16.400	    308.33	    50.690
  16.420	    316.67	    51.370
  16.440	    391.67	    57.130
  16.460	    350.00	    54.006
  16.480	    333.33	    52.705
  16.500	    300.00	    50.000
  16.520	    358.33	    54.645
  16.540	    325.00	    52.042
  16.560	    375.00	    55.902
  16.580	    308.33	    50.690
  16.600	    325.00	    52.042
  16.620	    283.33	    48.591
  16.640	    316.67	    51.370
  16.660	    300.00	    50.000
  16.680	    375.00	    55.902
  16.700	    258.33	    46.398
  16.720	    375.00	    55.902
  16.740	    400.00	    57.735
  16.760	    375.00	    55.902
  16.780	    341.67	    53.359
  16.800	    341.67	    53.359
  16.820	    341.67	    53.359
  16.840	    400.00	    57.735
  16.860	    275.00	    47.871
  16.880	    375.00	    55.902
  16.900	    250.00	    45.644
  16.920	    291.67	    49.301
  16.940	    333.33	    52.705
  16.960	    400.00	    57.735
  16.980	    291.67	    49.301
  17.000	    308.33	    50.690
  17.020	    458.33	    61.802
  17.040	    383.33	    56.519
  17.060	    425.00	    59.512
  17.080	    366.67	    55.277
  17.100	    425.00	    59.512
  17.120	    250.00	    45.644
  17.140	    300.00	    50.000
  17.160	    291.67	    49.301
  17.180	    350.00	    54.006
  17.200	    350.00	    54.006
  17.220	    441.67	    60.668
  17.240	    200.00	    40.825
  17.260	    241.67	    44.876
  17.280	    241.67	    44.876
  17.300	    325.00	    52.042
  17.320	    358.33	    54.645
  17.340	    316.67	    51.370
  17.360	    383.33	    56.519
  17.380	    341.67	    53.359
  17.400	    433.33	    60.093
  17.420	    225.00	    43.301
  17.440	    458.33	    61.802
  17.460	    316.67	    51.370
  17.480	    250.00	    45.644
  17.500	    408.33	    58.333
  17.520	    291.67	    49.301
  17.540	    308.33	    50.690
  17.560	    333.33	    52.705
  17.580	    308.33	    50.690
  17.600	    375.00	    55.902
  17.620	    325.00	    52.042
  17.640	    283.33	    48.591
  17.660	    416.67	    58.926
  17.680	    250.00	    45.644
  17.700	    383.33	    56.519
  17.720	    283.33	    48.591
  17.740	    291.67	    49.301
  17.760	    308.33	    50.690
  17.780	    408.33	    58.333
  17.800	    408.33	    58.333
  17.820	    241.67	    44.876
  17.840	    350.00	    54.006
  17.860	    283.33	    48.591
  17.880	    316.67	    51.370
  17.900	    375.00	    55.902
  17.920	    300.00	    50.000
  17.940	    291.67	    49.301
  17.960	    416.67	    58.926
  17.980	    358.33	    54.645
  18.000	    408.33	    58.333
  18.020	    358.33	    54.645
  18.040	    366.67	    55.277
  18.060	    383.33	    56.519
  18.080	    325.00	    52.042
  18.100	    275.00	    47.871
  18.120	    408.33	    58.333
  18.140	    300.00	    50.000
  18.160	    408.33	    58.333
  18.180	    291.67	    49.301
  18.200	    291.67	    49.301
  18.220	    316.67	    51.370
  18.240	    358.33	    54.645
  18.260	    358.33	    54.645
  18.280	    350.00	    54.006
  18.300	    325.00	    52.042
  18.320	    400.00	    57.735
  18.340	    358.33	    54.645
  18.360	    441.67	    60.668
  18.380	    316.67	    51.370
  18.400	    383.33	    56.519
  18.420	    366.67	    55.277
  18.440	    400.00	    57.735
  18.460	    375.00	    55.902
  18.480	    333.33	    52.705
  18.500	    425.00	    59.512
  18.520	    283.33	    48.591
  18.540	    308.33	    50.690
  18.560	    375.00	    55.902
  18.580	    466.67	    62.361
  18.600	    416.67	    58.926
  18.620	    391.67	    57.130
  18.640	    416.67	    58.926
  18.660	    325.00	    52.042
  18.680	    225.00	    43.301
  18.700	    375.00	    55.902
  18.720	    366.67	    55.277
  18.740	    341.67	    53.359
  18.760	    441.67	    60.668
  18.780	    366.67	    55.277
  18.800	    391.67	    57.130
  18.820	    325.00	    52.042
  18.840	    358.33	    54.645
  18.860	    350.00	    54.006
  18.880	    358.33	    54.645
  18.900	    383.33	    56.519
  18.920	    425.00	    59.512
  18.940	    358.33	    54.645
  18.960	    375.00	    55.902
  18.980	    358.33	    54.645
  19.000	    350.00	    54.006
  19.020	    341.67	    53.359
  19.040	    366.67	    55.277
  19.060	    341.67	    53.359
  19.080	    266.67	    47.140
  19.100	    433.33	    60.093
  19.120	    433.33	    60.093
  19.140	    283.33	    48.591
  19.160	    283.33	    48.591
  19.180	    333.33	    52.705
  19.200	    341.67	    53.359
  19.220	    391.67	    57.130
  19.240	    383.33	    56.519
  19.260	    333.33	    52.705
  19.280	    350.00	    54.006
  19.300	    383.33	    56.519
  19.320	    358.33	    54.645
  19.340	    383.33	    56.519
  19.360	    283.33	    48.591
  19.380	    383.33	    56.519
  19.400	    350.00	    54.006
  19.420	    416.67	    58.926
  19.440	    341.67	    53.359
  19.460	    450.00	    61.237
  19.480	    375.00	    55.902
  19.500	    350.00	    54.006
  19.520	    225.00	    43.301
  19.540	    375.00	    55.902
  19.560	    316.67	    51.370
  19.580	    391.67	    57.130
  19.600	    366.67	    55.277
  19.620	    383.33	    56.519
  19.640	    358.33	    54.645
  19.660	    350.00	    54.006
  19.680	    308.33	    50.690
  19.700	    350.00	    54.006
  19.720	    258.33	    46.398
  19.740	    408.33	    58.333
  19.760	    350.00	    54.006
  19.780	    366.67	    55.277
  19.800	    416.67	    58.926
  19.820	    441.67	    60.668
  19.840	    300.00	    50.000
  19.860	    450.00	    61.237
  19.880	    408.33	    58.333
  19.900	    358.33	    54.645
  19.920	    316.67	    51.370
  19.940	    275.00	    47.871
  19.960	    441.67	    60.668
  19.980	    375.00	    55.902
  20.000	    383.33	    56.519
  20.020	    375.00	    55.902
  20.040	    383.33	    56.519
  20.060	    325.00	    52.042
  20.080	    325.00	    52.042
  20.100	    416.67	    58.926
  20.120	    325.00	    52.042
  20.140	    366.67	    55.277
  20.160	    325.00	    52.042
  20.180	    333.33	    52.705
  20.200	    333.33	    52.705
  20.220	    358.33	    54.645
  20.240	    333.33	    52.705
  20.260	    400.00	    57.735
  20.280	    358.33	    54.645
  20.300	    458.33	    61.802
  20.320	    391.67	    57.130
  20.340	    275.00	    47.871
  20.360	    358.33	    54.645
  20.380	    383.33	    56.519
  20.400	    275.00	    47.871
  20.420	    300.00	    50.000
  20.440	    391.67	    57.130
  20.460	    333.33	    52.705
  20.480	    425.00	    59.512
  20.500	    583.33	    69.722
  20.520	    391.67	    57.130
  20.540	    416.67	    58.926
  20.560	    350.00	    54.006
  20.580	    458.33	    61.802
  20.600	    366.67	    55.277
  20.620	    358.33	    54.645
  20.640	    275.00	    47.871
  20.660	    350.00	    54.006
  20.680	    400.00	    57.735
  20.700	    316.67	    51.370
  20.720	    358.33	    54.645
  20.740	    325.00	    52.042
  20.760	    366.67	    55.277
  20.780	    300.00	    50.000
  20.800	    366.67	    55.277
  20.820	    408.33	    58.333
  20.840	    325.00	    52.042
  20.860	    525.00	    66.144
  20.880	    316.67	    51.370
  20.900	    425.00	    59.512
  20.920	    475.00	    62.915
  20.940	    391.67	    57.130
  20.960	    358.33	    54.645
  20.980	    366.67	    55.277
  21.000	    400.00	    57.735
  21.020	    375.00	    55.902
  21.040	    375.00	    55.902
  21.060	    441.67	    60.668
  21.080	    383.33	    56.519
  21.100	    416.67	    58.926
  21.120	    566.67	    68.718
  21.140	    350.00	    54.006
  21.160	    350.00	    54.006
  21.180	    475.00	    62.915
  21.200	    350.00	    54.006
  21.220	    458.33	    61.802
  21.240	    433.33	    60.093
  21.260	    366.67	    55.277
  21.280	    500.00	    64.550
  21.300	    316.67	    51.370
  21.320	    391.67	    57.130
  21.340	    308.33	    50.690
  21.360	    325.00	    52.042
  21.380	    341.67	    53.359
  21.400	    308.33	    50.690
  21.420	    425.00	    59.512
  21.440	    408.33	    58.333
  21.460	    416.67	    58.926
  21.480	    316.67	    51.370
  21.500	    350.00	    54.006
  21.520	    358.33	    54.645
  21.540	    383.33	    56.519
  21.560	    433.33	    60.093
  21.580	    391.67	    57.130
  21.600	    383.33	    56.519
  21.620	    391.67	    57.130
  21.640	    516.67	    65.617
  21.660	    341.67	    53.359
  21.680	    350.00	    54.006
  21.700	    383.33	    56.519
  21.720	    433.33	    60.093
  21.740	    408.33	    58.333
  21.760	    325.00	    52.042
  21.780	    308.33	    50.690
  21.800	    316.67	    51.370
  21.820	    341.67	    53.359
  21.840	    433.33	    60.093
  21.860	    433.33	    60.093
  21.880	    425.00	    59.512
  21.900	    350.00	    54.006
  21.920	    383.33	    56.519
  21.940	    333.33	    52.705
  21.960	    341.67	    53.359
  21.980	    300.00	    50.000
  22.000	    416.67	    58.926
  22.020	    300.00	    50.000
  22.040	    408.33	    58.333
  22.060	    450.00	    61.237
  22.080	    275.00	    47.871
  22.100	    316.67	    51.370
  22.120	    266.67	    47.140
  22.140	    416.67	    58.926
  22.160	    341.67	    53.359
  22.180	    300.00	    50.000
  22.200	    333.33	    52.705
  22.220	    333.33	    52.705
  22.240	    375.00	    55.902
  22.260	    375.00	    55.902
  22.280	    400.00	    57.735
  22.300	    433.33	    60.093
  22.320	    383.33	    56.519
  22.340	    300.00	    50.000
  22.360	    350.00	    54.006
  22.380	    358.33	    54.645
  22.400	    450.00	    61.237
  22.420	    391.67	    57.130
  22.440	    383.33	    56.519
  22.460	    516.67	    65.617
  22.480	    416.67	    58.926
  22.500	    300.00	    50.000
  22.520	    391.67	    57.130
  22.540	    350.00	    54.006
  22.560	    400.00	    57.735
  22.580	    433.33	    60.093
  22.600	    400.00	    57.735
  22.620	    391.67	    57.130
  22.640	    350.00	    54.006
  22.660	    366.67	    55.277
  22.680	    366.67	    55.277
  22.700	    441.67	    60.668
  22.720	    516.67	    65.617
  22.740	    375.00	    55.902
  22.760	    325.00	    52.042
  22.780	    383.33	    56.519
  22.800	    325.00	    52.042
  22.820	    450.00	    61.237
  22.840	    441.67	    60.668
  22.860	    350.00	    54.006
  22.880	    366.67	    55.277
  22.900	    416.67	    58.926
  22.920	    466.67	    62.361
  22.940	    400.00	    57.735
  22.960	    391.67	    57.130
  22.980	    450.00	    61.237
  23.000	    425.00	    59.512
  23.020	    475.00	    62.915
  23.040	    458.33	    61.802
  23.060	    400.00	    57.735
  23.080	    358.33	    54.645
  23.100	    300.00	    50.000
  23.120	    416.67	    58.926
  23.140	    341.67	    53.359
  23.160	    400.00	    57.735
  23.180	    391.67	    57.130
  23.200	    300.00	    50.000
  23.220	    416.67	    58.926
  23.240	    441.67	    60.668
  23.260	    433.33	    60.093
  23.280	    466.67	    62.361
  23.300	    408.33	    58.333
  23.320	    441.67	    60.668
  23.340	    500.00	    64.550
  23.360	    333.33	    52.705
  23.380	    416.67	    58.926
  23.400	    341.67	    53.359
  23.420	    333.33	    52.705
  23.440	    358.33	    54.645
  23.460	    441.67	    60.668
  23.480	    350.00	    54.006
  23.500	    333.33	    52.705
  23.520	    383.33	    56.519
  23.540	    358.33	    54.645
  23.560	    333.33	    52.705
  23.580	    291.67	    49.301
  23.600	    408.33	    58.333
  23.620	    250.00	    45.644
  23.640	    350.00	    54.006
  23.660	    350.00	    54.006
  23.680	    383.33	    56.519
  23.700	    350.00	    54.006
  23.720	    375.00	    55.902
  23.740	    375.00	    55.902
  23.760	    308.33	    50.690
  23.780	    391.67	    57.130
  23.800	    325.00	    52.042
  23.820	    325.00	    52.042
  23.840	    358.33	    54.645
  23.860	    433.33	    60.093
  23.880	    325.00	    52.042
  23.900	    425.00	    59.512
  23.920	    358.33	    54.645
  23.940	    308.33	    50.690
  23.960	    416.67	    58.926
  23.980	    416.67	    58.926
  24.000	    341.67	    53.359
  24.020	    333.33	    52.705
  24.040	    400.00	    57.735
  24.060	    375.00	    55.902
  24.080	    400.00	    57.735
  24.100	    341.67	    53.359
  24.120	    391.67	    57.130
  24.140	    508.33	    65.085
  24.160	    375.00	    55.902
  24.180	    441.67	    60.668
  24.200	    400.00	    57.735
  24.220	    258.33	    46.398
  24.240	    400.00	    57.735
  24.260	    366.67	    55.277
  24.280	    391.67	    57.130
  24.300	    375.00	    55.902
  24.320	    308.33	    50.690
  24.340	    458.33	    61.802
  24.360	    391.67	    57.130
  24.380	    358.33	    54.645
  24.400	    425.00	    59.512
  24.420	    366.67	    55.277
  24.440	    391.67	    57.130
  24.460	    341.67	    53.359
  24.480	    350.00	    54.006
  24.500	    241.67	    44.876
  24.520	    416.67	    58.926
  24.540	    391.67	    57.130
  24.560	    391.67	    57.130
  24.580	    433.33	    60.093
  24.600	    433.33	    60.093
  24.620	    391.67	    57.130
  24.640	    375.00	    55.902
  24.660	    425.00	    59.512
  24.680	    400.00	    57.735
  24.700	    416.67	    58.926
  24.720	    466.67	    62.361
  24.740	    316.67	    51.370
  24.760	    416.67	    58.926
  24.780	    300.00	    50.000
  24.800	    333.33	    52.705
  24.820	    408.33	    58.333
  24.840	    391.67	    57.130
  24.860	    308.33	    50.690
  24.880	    308.33	    50.690
  24.900	    483.33	    63.465
  24.920	    400.00	    57.735
  24.940	    366.67	    55.277
  24.960	    391.67	    57.130
  24.980	    433.33	    60.093
  25.000	    441.67	    60.668
  25.020	    450.00	    61.237
  25.040	    316.67	    51.370
  25.060	    325.00	    52.042
  25.080	    391.67	    57.130
  25.100	    391.67	    57.130
  25.120	    408.33	    58.333
  25.140	    458.33	    61.802
  25.160	    416.67	    58.926
  25.180	    291.67	    49.301
  25.200	    341.67	    53.359
  25.220	    416.67	    58.926
  25.240	    458.33	    61.802
  25.260	    325.00	    52.042
  25.280	    325.00	    52.042
  25.300	    375.00	    55.902
  25.320	    375.00	    55.902
  25.340	    408.33	    58.333
  25.360	    358.33	    54.645
  25.380	    433.33	    60.093
  25.400	    375.00	    55.902
  25.420	    425.00	    59.512
  25.440	    325.00	    52.042
  25.460	    375.00	    55.902
  25.480	    433.33	    60.093
  25.500	    241.67	    44.876
  25.520	    433.33	    60.093
  25.540	    533.33	    66.667
  25.560	    441.67	    60.668
  25.580	    391.67	    57.130
  25.600	    366.67	    55.277
  25.620	    366.67	    55.277
  25.640	    441.67	    60.668
  25.660	    333.33	    52.705
  25.680	    350.00	    54.006
  25.700	    375.00	    55.902
  25.720	    316.67	    51.370
  25.740	    425.00	    59.512
  25.760	    391.67	    57.130
  25.780	    491.67	    64.010
  25.800	    383.33	    56.519
  25.820	    408.33	    58.333
  25.840	    375.00	    55.902
  25.860	    350.00	    54.006
  25.880	    300.00	    50.000
  25.900	    366.67	    55.277
  25.920	    358.33	    54.645
  25.940	    358.33	    54.645
  25.960	    291.67	    49.301
  25.980	    391.67	    57.130
  26.000	    375.00	    55.902
  26.020	    341.67	    53.359
  26.040	    358.33	    54.645
  26.060	    308.33	    50.690
  26.080	    383.33	    56.519
  26.100	    425.00	    59.512
  26.120	    266.67	    47.140
  26.140	    316.67	    51.370
  26.160	    308.33	    50.690
  26.180	    416.67	    58.926
  26.200	    358.33	    54.645
  26.220	    283.33	    48.591
  26.240	    383.33	    56.519
  26.260	    441.67	    60.668
  26.280	    316.67	    51.370
  26.300	    358.33	    54.645
  26.320	    383.33	    56.519
  26.340	    508.33	    65.085
  26.360	    400.00	    57.735
  26.380	    308.33	    50.690
  26.400	    383.33	    56.519
  26.420	    350.00	    54.006
  26.440	    350.00	    54.006
  26.460	    525.00	    66.144
  26.480	    325.00	    52.042
  26.500	    300.00	    50.000
  26.520	    325.00	    52.042
  26.540	    383.33	    56.519
  26.560	    433.33	    60.093
  26.580	    375.00	    55.902
  26.600	    350.00	    54.006
  26.620	    458.33	    61.802
  26.640	    416.67	    58.926
  26.660	    450.00	    61.237
  26.680	    391.67	    57.130
  26.700	    391.67	    57.130
  26.720	    350.00	    54.006
  26.740	    425.00	    59.512
  26.760	    525.00	    66.144
  26.780	    308.33	    50.690
  26.800	    358.33	    54.645
  26.820	    341.67	    53.359
  26.840	    375.00	    55.902
  26.860	    358.33	    54.645
  26.880	    275.00	    47.871
  26.900	    416.67	    58.926
  26.920	    375.00	    55.902
  26.940	    358.33	    54.645
  26.960	    308.33	    50.690
  26.980	    383.33	    56.519
  27.000	    316.67	    51.370
  27.020	    433.33	    60.093
  27.040	    325.00	    52.042
  27.060	    333.33	    52.705
  27.080	    425.00	    59.512
  27.100	    491.67	    64.010
  27.120	    383.33	    56.519
  27.140	    441.67	    60.668
  27.160	    475.00	    62.915
  27.180	    408.33	    58.333
  27.200	    425.00	    59.512
  27.220	    475.00	    62.915
  27.240	    400.00	    57.735
  27.260	    358.33	    54.645
  27.280	    400.00	    57.735
  27.300	    383.33	    56.519
  27.320	    450.00	    61.237
  27.340	    383.33	    56.519
  27.360	    316.67	    51.370
  27.380	    425.00	    59.512
  27.400	    433.33	    60.093
  27.420	    308.33	    50.690
  27.440	    383.33	    56.519
  27.460	    350.00	    54.006
  27.480	    450.00	    61.237
  27.500	    416.67	    58.926
  27.520	    350.00	    54.006
  27.540	    375.00	    55.902
  27.560	    475.00	    62.915
  27.580	    333.33	    52.705
  27.600	    416.67	    58.926
  27.620	    266.67	    47.140
  27.640	    375.00	    55.902
  27.660	    450.00	    61.237
  27.680	    333.33	    52.705
  27.700	    358.33	    54.645
  27.720	    325.00	    52.042
  27.740	    416.67	    58.926
  27.760	    475.00	    62.915
  27.780	    408.33	    58.333
  27.800	    383.33	    56.519
  27.820	    433.33	    60.093
  27.840	    391.67	    57.130
  27.860	    333.33	    52.705
  27.880	    416.67	    58.926
  27.900	    375.00	    55.902
  27.920	    275.00	    47.871
  27.940	    466.67	    62.361
  27.960	    350.00	    54.006
  27.980	    341.67	    53.359
  28.000	    308.33	    50.690
  28.020	    416.67	    58.926
  28.040	    350.00	    54.006
  28.060	    366.67	    55.277
  28.080	    400.00	    57.735
  28.100	    383.33	    56.519
  28.120	    350.00	    54.006
  28.140	    425.00	    59.512
  28.160	    391.67	    57.130
  28.180	    450.00	    61.237
  28.200	    300.00	    50.000
  28.220	    391.67	    57.130
  28.240	    441.67	    60.668
  28.260	    350.00	    54.006
  28.280	    358.33	    54.645
  28.300	    358.33	    54.645
  28.320	    500.00	    64.550
  28.340	    416.67	    58.926
  28.360	    408.33	    58.333
  28.380	    375.00	    55.902
  28.400	    591.67	    70.218
  28.420	    466.67	    62.361
  28.440	    425.00	    59.512
  28.460	    441.67	    60.668
  28.480	    383.33	    56.519
  28.500	    391.67	    57.130
  28.520	    341.67	    53.359
  28.540	    391.67	    57.130
  28.560	    366.67	    55.277
  28.580	    350.00	    54.006
  28.600	    441.67	    60.668
  28.620	    433.33	    60.093
  28.640	    350.00	    54.006
  28.660	    358.33	    54.645
  28.680	    433.33	    60.093
  28.700	    475.00	    62.915
  28.720	    341.67	    53.359
  28.740	    308.33	    50.690
  28.760	    350.00	    54.006
  28.780	    400.00	    57.735
  28.800	    425.00	    59.512
  28.820	    475.00	    62.915
  28.840	    408.33	    58.333
  28.860	    433.33	    60.093
  28.880	    416.67	    58.926
  28.900	    350.00	    54.006
  28.920	    375.00	    55.902
  28.940	    400.00	    57.735
  28.960	    350.00	    54.006
  28.980	    200.00	    40.825
  29.000	    316.67	    51.370
  29.020	    366.67	    55.277
  29.040	    308.33	    50.690
  29.060	    391.67	    57.130
  29.080	    341.67	    53.359
  29.100	    383.33	    56.519
  29.120	    400.00	    57.735
  29.140	    441.67	    60.668
  29.160	    341.67	    53.359
  29.180	    541.67	    67.185
  29.200	    416.67	    58.926
  29.220	    358.33	    54.645
  29.240	    391.67	    57.130
  29.260	    450.00	    61.237
  29.280	    408.33	    58.333
  29.300	    316.67	    51.370
  29.320	    358.33	    54.645
  29.340	    383.33	    56.519
  29.360	    283.33	    48.591
  29.380	    316.67	    51.370
  29.400	    291.67	    49.301
  29.420	    341.67	    53.359
  29.440	    408.33	    58.333
  29.460	    375.00	    55.902
  29.480	    358.33	    54.645
  29.500	    383.33	    56.519
  29.520	    316.67	    51.370
  29.540	    383.33	    56.519
  29.560	    433.33	    60.093
  29.580	    391.67	    57.130
  29.600	    491.67	    64.010
  29.620	    333.33	    52.705
  29.640	    341.67	    53.359
  29.660	    441.67	    60.668
  29.680	    366.67	    55.277
  29.700	    483.33	    63.465
  29.720	    458.33	    61.802
  29.740	    408.33	    58.333
  29.760	    425.00	    59.512
  29.780	    366.67	    55.277
  29.800	    441.67	    60.668
  29.820	    333.33	    52.705
  29.840	    358.33	    54.645
  29.860	    358.33	    54.645
  29.880	    366.67	    55.277
  29.900	    350.00	    54.006
  29.920	    375.00	    55.902
  29.940	    416.67	    58.926
  29.960	    358.33	    54.645
  29.980	    350.00	    54.006
  30.000	    416.67	    58.926
  30.020	    341.67	    53.359
  30.040	    425.00	    59.512
  30.060	    375.00	    55.902
  30.080	    416.67	    58.926
  30.100	    400.00	    57.735
  30.120	    241.67	    44.876
  30.140	    525.00	    66.144
  30.160	    308.33	    50.690
  30.180	    325.00	    52.042
  30.200	    300.00	    50.000
  30.220	    458.33	    61.802
  30.240	    383.33	    56.519
  30.260	    325.00	    52.042
  30.280	    391.67	    57.130
  30.300	    408.33	    58.333
  30.320	    408.33	    58.333
  30.340	    441.67	    60.668
  30.360	    450.00	    61.237
  30.380	    500.00	    64.550
  30.400	    458.33	    61.802
  30.420	    283.33	    48.591
  30.440	    383.33	    56.519
  30.460	    400.00	    57.735
  30.480	    408.33	    58.333
  30.500	    300.00	    50.000
  30.520	    333.33	    52.705
  30.540	    575.00	    69.222
  30.560	    375.00	    55.902
  30.580	    350.00	    54.006
  30.600	    358.33	    54.645
  30.620	    358.33	    54.645
  30.640	    358.33	    54.645
  30.660	    458.33	    61.802
  30.680	    383.33	    56.519
  30.700	    400.00	    57.735
  30.720	    375.00	    55.902
  30.740	    358.33	    54.645
  30.760	    441.67	    60.668
  30.780	    366.67	    55.277
  30.800	    350.00	    54.006
  30.820	    316.67	    51.370
  30.840	    325.00	    52.042
  30.860	    291.67	    49.301
  30.880	    350.00	    54.006
  30.900	    366.67	    55.277
  30.920	    416.67	    58.926
  30.940	    341.67	    53.359
  30.960	    358.33	    54.645
  30.980	    475.00	    62.915
  31.000	    450.00	    61.237
  31.020	    416.67	    58.926
  31.040	    458.33	    61.802
  31.060	    425.00	    59.512
  31.080	    416.67	    58.926
  31.100	    441.67	    60.668
  31.120	    425.00	    59.512
  31.140	    416.67	    58.926
  31.160	    283.33	    48.591
  31.180	    358.33	    54.645
  31.200	    358.33	    54.645
  31.220	    316.67	    51.370
  31.240	    341.67	    53.359
  31.260	    366.67	    55.277
  31.280	    291.67	    49.301
  31.300	    391.67	    57.130
  31.320	    366.67	    55.277
  31.340	    283.33	    48.591
  31.360	    275.00	    47.871
  31.380	    266.67	    47.140
  31.400	    341.67	    53.359
  31.420	    400.00	    57.735
  31.440	    358.33	    54.645
  31.460	    433.33	    60.093
  31.480	    408.33	    58.333
  31.500	    441.67	    60.668
  31.520	    416.67	    58.926
  31.540	    350.00	    54.006
  31.560	    391.67	    57.130
  31.580	    325.00	    52.042
  31.600	    383.33	    56.519
  31.620	    425.00	    59.512
  31.640	    383.33	    56.519
  31.660	    391.67	    57.130
  31.680	    408.33	    58.333
  31.700	    416.67	    58.926
  31.720	    383.33	    56.519
  31.740	    441.67	    60.668
  31.760	    416.67	    58.926
  31.780	    400.00	    57.735
  31.800	    516.67	    65.617
  31.820	    341.67	    53.359
  31.840	    383.33	    56.519
  31.860	    383.33	    56.519
  31.880	    425.00	    59.512
  31.900	    341.67	    53.359
  31.920	    341.67	    53.359
  31.940	    358.33	    54.645
  31.960	    300.00	    50.000
  31.980	    391.67	    57.130
  32.000	    416.67	    58.926
  32.020	    400.00	    57.735
  32.040	    400.00	    57.735
  32.060	    358.33	    54.645
  32.080	    441.67	    60.668
  32.100	    375.00	    55.902
  32.120	    416.67	    58.926
  32.140	    300.00	    50.000
  32.160	    416.67	    58.926
  32.180	    425.00	    59.512
  32.200	    466.67	    62.361
  32.220	    308.33	    50.690
  32.240	    383.33	    56.519
  32.260	    333.33	    52.705
  32.280	    341.67	    53.359
  32.300	    275.00	    47.871
  32.320	    458.33	    61.802
  32.340	    408.33	    58.333
  32.360	    308.33	    50.690
  32.380	    408.33	    58.333
  32.400	    383.33	    56.519
  32.420	    458.33	    61.802
  32.440	    291.67	    49.301
  32.460	    466.67	    62.361
  32.480	    366.67	    55.277
  32.500	    291.67	    49.301
  32.520	    450.00	    61.237
  32.540	    341.67	    53.359
  32.560	    408.33	    58.333
  32.580	    300.00	    50.000
  32.600	    358.33	    54.645
  32.620	    366.67	    55.277
  32.640	    316.67	    51.370
  32.660	    358.33	    54.645
  32.680	    366.67	    55.277
  32.700	    416.67	    58.926
  32.720	    400.00	    57.735
  32.740	    308.33	    50.690
  32.760	    358.33	    54.645
  32.780	    383.33	    56.519
  32.800	    291.67	    49.301
  32.820	    325.00	    52.042
  32.840	    425.00	    59.512
  32.860	    291.67	    49.301
  32.880	    350.00	    54.006
  32.900	    350.00	    54.006
  32.920	    400.00	    57.735
  32.940	    350.00	    54.006
  32.960	    350.00	    54.006
  32.980	    391.67	    57.130
  33.000	    375.00	    55.902
  33.020	    508.33	    65.085
  33.040	    375.00	    55.902
  33.060	    458.33	    61.802
  33.080	    366.67	    55.277
  33.100	    375.00	    55.902
  33.120	    350.00	    54.006
  33.140	    316.67	    51.370
  33.160	    358.33	    54.645
  33.180	    316.67	    51.370
  33.200	    291.67	    49.301
  33.220	    391.67	    57.130
  33.240	    391.67	    57.130
  33.260	    441.67	    60.668
  33.280	    408.33	    58.333
  33.300	    408.33	    58.333
  33.320	    375.00	    55.902
  33.340	    366.67	    55.277
  33.360	    416.67	    58.926
  33.380	    408.33	    58.333
  33.400	    383.33	    56.519
  33.420	    466.67	    62.361
  33.440	    408.33	    58.333
  33.460	    366.67	    55.277
  33.480	    416.67	    58.926
  33.500	    391.67	    57.130
  33.520	    341.67	    53.359
  33.540	    383.33	    56.519
  33.560	    391.67	    57.130
  33.580	    450.00	    61.237
  33.600	    375.00	    55.902
  33.620	    333.33	    52.705
  33.640	    366.67	    55.277
  33.660	    450.00	    61.237
  33.680	    358.33	    54.645
  33.700	    316.67	    51.370
  33.720	    375.00	    55.902
  33.740	    425.00	    59.512
  33.760	    491.67	    64.010
  33.780	    325.00	    52.042
  33.800	    316.67	    51.370
  33.820	    258.33	    46.398
  33.840	    358.33	    54.645
  33.860	    358.33	    54.645
  33.880	    416.67	    58.926
  33.900	    391.67	    57.130
  33.920	    266.67	    47.140
  33.940	    375.00	    55.902
  33.960	    358.33	    54.645
  33.980	    383.33	    56.519
  34.000	    366.67	    55.277
  34.020	    333.33	    52.705
  34.040	    375.00	    55.902
  34.060	    391.67	    57.130
  34.080	    383.33	    56.519
  34.100	    241.67	    44.876
  34.120	    341.67	    53.359
  34.140	    350.00	    54.006
  34.160	    483.33	    63.465
  34.180	    333.33	    52.705
  34.200	    400.00	    57.735
  34.220	    433.33	    60.093
  34.240	    366.67	    55.277
  34.260	    416.67	    58.926
  34.280	    375.00	    55.902
  34.300	    366.67	    55.277
  34.320	    383.33	    56.519
  34.340	    400.00	    57.735
  34.360	    283.33	    48.591
  34.380	    333.33	    52.705
  34.400	    475.00	    62.915
  34.420	    375.00	    55.902
  34.440	    316.67	    51.370
  34.460	    416.67	    58.926
  34.480	    300.00	    50.000
  34.500	    441.67	    60.668
  34.520	    383.33	    56.519
  34.540	    375.00	    55.902
  34.560	    433.33	    60.093
  34.580	    433.33	    60.093
  34.600	    291.67	    49.301
  34.620	    350.00	    54.006
  34.640	    341.67	    53.359
  34.660	    308.33	    50.690
  34.680	    416.67	    58.926
  34.700	    383.33	    56.519
  34.720	    316.67	    51.370
  34.740	    308.33	    50.690
  34.760	    383.33	    56.519
  34.780	    300.00	    50.000
  34.800	    308.33	    50.690
  34.820	    416.67	    58.926
  34.840	    358.33	    54.645
  34.860	    266.67	    47.140
  34.880	    316.67	    51.370
  34.900	    400.00	    57.735
  34.920	    358.33	    54.645
  34.940	    400.00	    57.735
  34.960	    391.67	    57.130
  34.980	    375.00	    55.902
  35.000	    291.67	    49.301
  35.020	    425.00	    59.512
  35.040	    375.00	    55.902
  35.060	    475.00	    62.915
  35.080	    341.67	    53.359
  35.100	    350.00	    54.006
  35.120	    283.33	    48.591
  35.140	    416.67	    58.926
  35.160	    358.33	    54.645
  35.180	    400.00	    57.735
  35.200	    383.33	    56.519
  35.220	    350.00	    54.006
  35.240	    300.00	    50.000
  35.260	    358.33	    54.645
  35.280	    416.67	    58.926
  35.300	    400.00	    57.735
  35.320	    375.00	    55.902
  35.340	    350.00	    54.006
  35.360	    375.00	    55.902
  35.380	    316.67	    51.370
  35.400	    383.33	    56.519
  35.420	    391.67	    57.130
  35.440	    441.67	    60.668
  35.460	    358.33	    54.645
  35.480	    466.67	    62.361
  35.500	    491.67	    64.010
  35.520	    350.00	    54.006
  35.540	    316.67	    51.370
  35.560	    283.33	    48.591
  35.580	    333.33	    52.705
  35.600	    308.33	    50.690
  35.620	    333.33	    52.705
  35.640	    275.00	    47.871
  35.660	    358.33	    54.645
  35.680	    358.33	    54.645
  35.700	    341.67	    53.359
  35.720	    383.33	    56.519
  35.740	    383.33	    56.519
  35.760	    241.67	    44.876
  35.780	    350.00	    54.006
  35.800	    325.00	    52.042
  35.820	    366.67	    55.277
  35.840	    275.00	    47.871
  35.860	    341.67	    53.359
  35.880	    400.00	    57.735
  35.900	    283.33	    48.591
  35.920	    375.00	    55.902
  35.940	    450.00	    61.237
  35.960	    366.67	    55.277
  35.980	    400.00	    57.735
  36.000	    400.00	    57.735
  36.020	    375.00	    55.902
  36.040	    383.33	    56.519
  36.060	    383.33	    56.519
  36.080	    400.00	    57.735
  36.100	    300.00	    50.000
  36.120	    333.33	    52.705
  36.140	    425.00	    59.512
  36.160	    408.33	    58.333
  36.180	    275.00	    47.871
  36.200	    475.00	    62.915
  36.220	    375.00	    55.902
  36.240	    400.00	    57.735
  36.260	    366.67	    55.277
  36.280	    316.67	    51.370
  36.300	    400.00	    57.735
  36.320	    341.67	    53.359
  36.340	    400.00	    57.735
  36.360	    400.00	    57.735
  36.380	    300.00	    50.000
  36.400	    366.67	    55.277
  36.420	    383.33	    56.519
  36.440	    358.33	    54.645
  36.460	    375.00	    55.902
  36.480	    383.33	    56.519
  36.500	    433.33	    60.093
  36.520	    316.67	    51.370
  36.540	    350.00	    54.006
  36.560	    333.33	    52.705
  36.580	    250.00	    45.644
  36.600	    358.33	    54.645
  36.620	    400.00	    57.735
  36.640	    283.33	    48.591
  36.660	    358.33	    54.645
  36.680	    375.00	    55.902
  36.700	    350.00	    54.006
  36.720	    425.00	    59.512
  36.740	    408.33	    58.333
  36.760	    350.00	    54.006
  36.780	    333.33	    52.705
  36.800	    341.67	    53.359
  36.820	    366.67	    55.277
  36.840	    441.67	    60.668
  36.860	    458.33	    61.802
  36.880	    441.67	    60.668
  36.900	    391.67	    57.130
  36.920	    366.67	    55.277
  36.940	    383.33	    56.519
  36.960	    366.67	    55.277
  36.980	    366.67	    55.277
  37.000	    358.33	    54.645
  37.020	    358.33	    54.645
  37.040	    350.00	    54.006
  37.060	    325.00	    52.042
  37.080	    366.67	    55.277
  37.100	    416.67	    58.926
  37.120	    425.00	    59.512
  37.140	    341.67	    53.359
  37.160	    325.00	    52.042
  37.180	    408.33	    58.333
  37.200	    366.67	    55.277
  37.220	    291.67	    49.301
  37.240	    408.33	    58.333
  37.260	    408.33	    58.333
  37.280	    466.67	    62.361
  37.300	    408.33	    58.333
  37.320	    350.00	    54.006
  37.340	    425.00	    59.512
  37.360	    383.33	    56.519
  37.380	    416.67	    58.926
  37.400	    408.33	    58.333
  37.420	    333.33	    52.705
  37.440	    408.33	    58.333
  37.460	    400.00	    57.735
  37.480	    433.33	    60.093
  37.500	    325.00	    52.042
  37.520	    383.33	    56.519
  37.540	    383.33	    56.519
  37.560	    466.67	    62.361
  37.580	    433.33	    60.093
  37.600	    491.67	    64.010
  37.620	    325.00	    52.042
  37.640	    316.67	    51.370
  37.660	    350.00	    54.006
  37.680	    450.00	    61.237
  37.700	    433.33	    60.093
  37.720	    300.00	    50.000
  37.740	    333.33	    52.705
  37.760	    433.33	    60.093
  37.780	    425.00	    59.512
  37.800	    458.33	    61.802
  37.820	    408.33	    58.333
  37.840	    366.67	    55.277
  37.860	    500.00	    64.550
  37.880	    366.67	    55.277
  37.900	    391.67	    57.130
  37.920	    391.67	    57.130
  37.940	    433.33	    60.093
  37.960	    425.00	    59.512
  37.980	    400.00	    57.735
  38.000	    358.33	    54.645
  38.020	    275.00	    47.871
  38.040	    375.00	    55.902
  38.060	    483.33	    63.465
  38.080	    366.67	    55.277
  38.100	    391.67	    57.130
  38.120	    408.33	    58.333
  38.140	    358.33	    54.645
  38.160	    308.33	    50.690
  38.180	    491.67	    64.010
  38.200	    375.00	    55.902
  38.220	    350.00	    54.006
  38.240	    375.00	    55.902
  38.260	    383.33	    56.519
  38.280	    383.33	    56.519
  38.300	    466.67	    62.361
  38.320	    433.33	    60.093
  38.340	    466.67	    62.361
  38.360	    525.00	    66.144
  38.380	    366.67	    55.277
  38.400	    316.67	    51.370
  38.420	    358.33	    54.645
  38.440	    433.33	    60.093
  38.460	    258.33	    46.398
  38.480	    366.67	    55.277
  38.500	    458.33	    61.802
  38.520	    408.33	    58.333
  38.540	    375.00	    55.902
  38.560	    358.33	    54.645
  38.580	    341.67	    53.359
  38.600	    425.00	    59.512
  38.620	    366.67	    55.277
  38.640	    275.00	    47.871
  38.660	    491.67	    64.010
  38.680	    308.33	    50.690
  38.700	    300.00	    50.000
  38.720	    408.33	    58.333
  38.740	    450.00	    61.237
  38.760	    366.67	    55.277
  38.780	    333.33	    52.705
  38.800	    466.67	    62.361
  38.820	    441.67	    60.668
  38.840	    375.00	    55.902
  38.860	    300.00	    50.000
  38.880	    491.67	    64.010
  38.900	    400.00	    57.735
  38.920	    333.33	    52.705
  38.940	    325.00	    52.042
  38.960	    416.67	    58.926
  38.980	    425.00	    59.512
  39.000	    375.00	    55.902
  39.020	    308.33	    50.690
  39.040	    416.67	    58.926
  39.060	    550.00	    67.700
  39.080	    375.00	    55.902
  39.100	    466.67	    62.361
  39.120	    291.67	    49.301
  39.140	    375.00	    55.902
  39.160	    441.67	    60.668
  39.180	    316.67	    51.370
  39.200	    358.33	    54.645
  39.220	    433.33	    60.093
  39.240	    500.00	    64.550
  39.260	    350.00	    54.006
  39.280	    450.00	    61.237
  39.300	    308.33	    50.690
  39.320	    350.00	    54.006
  39.340	    416.67	    58.926
  39.360	    391.67	    57.130
  39.380	    416.67	    58.926
  39.400	    400.00	    57.735
  39.420	    358.33	    54.645
  39.440	    316.67	    51.370
  39.460	    391.67	    57.130
  39.480	    466.67	    62.361
  39.500	    366.67	    55.277
  39.520	    325.00	    52.042
  39.540	    316.67	    51.370
  39.560	    358.33	    54.645
  39.580	    450.00	    61.237
  39.600	    425.00	    59.512
  39.620	    341.67	    53.359
  39.640	    408.33	    58.333
  39.660	    341.67	    53.359
  39.680	    291.67	    49.301
  39.700	    333.33	    52.705
  39.720	    400.00	    57.735
  39.740	    341.67	    53.359
  39.760	    425.00	    59.512
  39.780	    433.33	    60.093
  39.800	    258.33	    46.398
  39.820	    425.00	    59.512
  39.840	    416.67	    58.926
  39.860	    333.33	    52.705
  39.880	    391.67	    57.130
  39.900	    400.00	    57.735
  39.920	    333.33	    52.705
  39.940	    300.00	    50.000
  39.960	    450.00	    61.237
  39.980	    450.00	    61.237
  40.000	    475.00	    62.915
  40.020	    491.67	    64.010
  40.040	    575.00	    69.222
  40.060	    416.67	    58.926
  40.080	    408.33	    58.333
  40.100	    408.33	    58.333
  40.120	    450.00	    61.237
  40.140	    416.67	    58.926
  40.160	    375.00	    55.902
  40.180	    250.00	    45.644
  40.200	    366.67	    55.277
  40.220	    341.67	    53.359
  40.240	    425.00	    59.512
  40.260	    358.33	    54.645
  40.280	    275.00	    47.871
  40.300	    483.33	    63.465
  40.320	    425.00	    59.512
  40.340	    333.33	    52.705
  40.360	    375.00	    55.902
  40.380	    416.67	    58.926
  40.400	    458.33	    61.802
  40.420	    358.33	    54.645
  40.440	    450.00	    61.237
  40.460	    383.33	    56.519
  40.480	    333.33	    52.705
  40.500	    366.67	    55.277
  40.520	    375.00	    55.902
  40.540	    391.67	    57.130
  40.560	    483.33	    63.465
  40.580	    483.33	    63.465
  40.600	    316.67	    51.370
  40.620	    466.67	    62.361
  40.640	    425.00	    59.512
  40.660	    333.33	    52.705
  40.680	    458.33	    61.802
  40.700	    383.33	    56.519
  40.720	    366.67	    55.277
  40.740	    383.33	    56.519
  40.760	    366.67	    55.277
  40.780	    400.00	    57.735
  40.800	    483.33	    63.465
  40.820	    316.67	    51.370
  40.840	    358.33	    54.645
  40.860	    341.67	    53.359
  40.880	    283.33	    48.591
  40.900	    350.00	    54.006
  40.920	    333.33	    52.705
  40.940	    400.00	    57.735
  40.960	    333.33	    52.705
  40.980	    366.67	    55.277
  41.000	    333.33	    52.705
  41.020	    441.67	    60.668
  41.040	    475.00	    62.915
  41.060	    325.00	    52.042
  41.080	    425.00	    59.512
  41.100	    408.33	    58.333
  41.120	    308.33	    50.690
  41.140	    283.33	    48.591
  41.160	    516.67	    65.617
  41.180	    366.67	    55.277
  41.200	    325.00	    52.042
  41.220	    408.33	    58.333
  41.240	    391.67	    57.130
  41.260	    233.33	    44.096
  41.280	    408.33	    58.333
  41.300	    416.67	    58.926
  41.320	    541.67	    67.185
  41.340	    450.00	    61.237
  41.360	    383.33	    56.519
  41.380	    316.67	    51.370
  41.400	    333.33	    52.705
  41.420	    400.00	    57.735
  41.440	    400.00	    57.735
  41.460	    316.67	    51.370
  41.480	    341.67	    53.359
  41.500	    433.33	    60.093
  41.520	    441.67	    60.668
  41.540	    325.00	    52.042
  41.560	    275.00	    47.871
  41.580	    391.67	    57.130
  41.600	    416.67	    58.926
  41.620	    383.33	    56.519
  41.640	    408.33	    58.333
  41.660	    391.67	    57.130
  41.680	    333.33	    52.705
  41.700	    316.67	    51.370
  41.720	    300.00	    50.000
  41.740	    441.67	    60.668
  41.760	    383.33	    56.519
  41.780	    483.33	    63.465
  41.800	    441.67	    60.668
  41.820	    475.00	    62.915
  41.840	    316.67	    51.370
  41.860	    275.00	    47.871
  41.880	    491.67	    64.010
  41.900	    316.67	    51.370
  41.920	    366.67	    55.277
  41.940	    350.00	    54.006
  41.960	    475.00	    62.915
  41.980	    375.00	    55.902
  42.000	    300.00	    50.000
  42.020	    366.67	    55.277
  42.040	    366.67	    55.277
  42.060	    383.33	    56.519
  42.080	    433.33	    60.093
  42.100	    308.33	    50.690
  42.120	    450.00	    61.237
  42.140	    425.00	    59.512
  42.160	    366.67	    55.277
  42.180	    400.00	    57.735
  42.200	    475.00	    62.915
  42.220	    416.67	    58.926
  42.240	    400.00	    57.735
  42.260	    400.00	    57.735
  42.280	    283.33	    48.591
  42.300	    316.67	    51.370
  42.320	    366.67	    55.277
  42.340	    383.33	    56.519
  42.360	    491.67	    64.010
  42.380	    425.00	    59.512
  42.400	    383.33	    56.519
  42.420	    450.00	    61.237
  42.440	    425.00	    59.512
  42.460	    450.00	    61.237
  42.480	    325.00	    52.042
  42.500	    325.00	    52.042
  42.520	    475.00	    62.915
  42.540	    383.33	    56.519
  42.560	    475.00	    62.915
  42.580	    466.67	    62.361
  42.600	    400.00	    57.735
  42.620	    433.33	    60.093
  42.640	    483.33	    63.465
  42.660	    416.67	    58.926
  42.680	    408.33	    58.333
  42.700	    383.33	    56.519
  42.720	    358.33	    54.645
  42.740	    383.33	    56.519
  42.760	    641.67	    73.125
  42.780	    350.00	    54.006
  42.800	    383.33	    56.519
  42.820	    366.67	    55.277
  42.840	    408.33	    58.333
  42.860	    400.00	    57.735
  42.880	    416.67	    58.926
  42.900	    441.67	    60.668
  42.920	    408.33	    58.333
  42.940	    533.33	    66.667
  42.960	    391.67	    57.130
  42.980	    500.00	    64.550
  43.000	    375.00	    55.902
  43.020	    425.00	    59.512
  43.040	    450.00	    61.237
  43.060	    391.67	    57.130
  43.080	    458.33	    61.802
  43.100	    458.33	    61.802
  43.120	    550.00	    67.700
  43.140	    333.33	    52.705
  43.160	    366.67	    55.277
  43.180	    275.00	    47.871
  43.200	    333.33	    52.705
  43.220	    375.00	    55.902
  43.240	    408.33	    58.333
  43.260	    400.00	    57.735
  43.280	    383.33	    56.519
  43.300	    400.00	    57.735
  43.320	    441.67	    60.668
  43.340	    433.33	    60.093
  43.360	    508.33	    65.085
  43.380	    425.00	    59.512
  43.400	    341.67	    53.359
  43.420	    450.00	    61.237
  43.440	    475.00	    62.915
  43.460	    450.00	    61.237
  43.480	    491.67	    64.010
  43.500	    483.33	    63.465
  43.520	    341.67	    53.359
  43.540	    450.00	    61.237
  43.560	    416.67	    58.926
  43.580	    550.00	    67.700
  43.600	    500.00	    64.550
  43.620	    475.00	    62.915
  43.640	    575.00	    69.222
  43.660	    400.00	    57.735
  43.680	    458.33	    61.802
  43.700	    433.33	    60.093
  43.720	    441.67	    60.668
  43.740	    491.67	    64.010
  43.760	    416.67	    58.926
  43.780	    458.33	    61.802
  43.800	    650.00	    73.598
  43.820	    441.67	    60.668
  43.840	    433.33	    60.093
  43.860	    491.67	    64.010
  43.880	    425.00	    59.512
  43.900	    458.33	    61.802
  43.920	    575.00	    69.222
  43.940	    366.67	    55.277
  43.960	    508.33	    65.085
  43.980	    516.67	    65.617
  44.000	    575.00	    69.222
  44.020	    458.33	    61.802
  44.040	    400.00	    57.735
  44.060	    616.67	    71.686
  44.080	    508.33	    65.085
  44.100	    658.33	    74.068
  44.120	    591.67	    70.218
  44.140	    516.67	    65.617
  44.160	    608.33	    71.200
  44.180	    608.33	    71.200
  44.200	    725.00	    77.728
  44.220	    616.67	    71.686
  44.240	    691.67	    75.920
  44.260	    800.00	    81.650
  44.280	    858.33	    84.574
  44.300	   1125.00	    96.825
  44.320	   1300.00	   104.083
  44.340	   1333.33	   105.409
  44.360	   1775.00	   121.621
  44.380	   2116.67	   132.811
  44.400	   2616.67	   147.667
  44.420	   3250.00	   164.570
  44.440	   4150.00	   185.966
  44.460	   5866.67	   221.108
  44.480	   7108.33	   243.385
  44.500	   9008.33	   273.988
  44.520	  10666.67	   298.142
  44.540	  11725.00	   312.583
  44.560	  11783.33	   313.360
  44.580	  11866.67	   314.466
  44.600	  11333.33	   307.318
  44.620	  10850.00	   300.694
  44.640	   9508.33	   281.489
  44.660	   8741.67	   269.902
  44.680	   8408.33	   264.706
  44.700	   6925.00	   240.226
  44.720	   5941.67	   222.517
  44.740	   4400.00	   191.485
  44.760	   3541.67	   171.796
  44.780	   2941.67	   156.569
  44.800	   2141.67	   133.593
  44.820	   1591.67	   115.169
  44.840	   1391.67	   107.690
  44.860	   1058.33	    93.912
  44.880	   1083.33	    95.015
  44.900	    966.67	    89.753
  44.920	    825.00	    82.916
  44.940	    891.67	    86.201
  44.960	    708.33	    76.830
  44.980	    825.00	    82.916
  45.000	    600.00	    70.711
  45.020	    533.33	    66.667
  45.040	    625.00	    72.169
  45.060	    466.67	    62.361
  45.080	    616.67	    71.686
  45.100	    475.00	    62.915
  45.120	    441.67	    60.668
  45.140	    558.33	    68.211
  45.160	    458.33	    61.802
  45.180	    500.00	    64.550
  45.200	    541.67	    67.185
  45.220	    541.67	    67.185
  45.240	    358.33	    54.645
  45.260	    533.33	    66.667
  45.280	    541.67	    67.185
  45.300	    525.00	    66.144
  45.320	    541.67	    67.185
  45.340	    400.00	    57.735
  45.360	    358.33	    54.645
  45.380	    391.67	    57.130
  45.400	    383.33	    56.519
  45.420	    575.00	    69.222
  45.440	    516.67	    65.617
  45.460	    483.33	    63.465
  45.480	    425.00	    59.512
  45.500	    366.67	    55.277
  45.520	    458.33	    61.802
  45.540	    441.67	    60.668
  45.560	    408.33	    58.333
  45.580	    433.33	    60.093
  45.600	    316.67	    51.370
  45.620	    600.00	    70.711
  45.640	    350.00	    54.006
  45.660	    375.00	    55.902
  45.680	    483.33	    63.465
  45.700	    441.67	    60.668
  45.720	    458.33	    61.802
  45.740	    391.67	    57.130
  45.760	    466.67	    62.361
  45.780	    508.33	    65.085
  45.800	    466.67	    62.361
  45.820	    441.67	    60.668
  45.840	    366.67	    55.277
  45.860	    358.33	    54.645
  45.880	    458.33	    61.802
  45.900	    341.67	    53.359
  45.920	    458.33	    61.802
  45.940	    433.33	    60.093
  45.960	    383.33	    56.519
  45.980	    491.67	    64.010
  46.000	    508.33	    65.085
  46.020	    366.67	    55.277
  46.040	    366.67	    55.277
  46.060	    408.33	    58.333
  46.080	    366.67	    55.277
  46.100	    450.00	    61.237
  46.120	    483.33	    63.465
  46.140	    400.00	    57.735
  46.160	    383.33	    56.519
  46.180	    466.67	    62.361
  46.200	    391.67	    57.130
  46.220	    525.00	    66.144
  46.240	    400.00	    57.735
  46.260	    425.00	    59.512
  46.280	    383.33	    56.519
  46.300	    375.00	    55.902
  46.320	    441.67	    60.668
  46.340	    308.33	    50.690
  46.360	    541.67	    67.185
  46.380	    466.67	    62.361
  46.400	    433.33	    60.093
  46.420	    366.67	    55.277
  46.440	    341.67	    53.359
  46.460	    458.33	    61.802
  46.480	    441.67	    60.668
  46.500	    441.67	    60.668
  46.520	    341.67	    53.359
  46.540	    433.33	    60.093
  46.560	    400.00	    57.735
  46.580	    408.33	    58.333
  46.600	    408.33	    58.333
  46.620	    483.33	    63.465
  46.640	    458.33	    61.802
  46.660	    475.00	    62.915
  46.680	    341.67	    53.359
  46.700	    416.67	    58.926
  46.720	    358.33	    54.645
  46.740	    508.33	    65.085
  46.760	    441.67	    60.668
  46.780	    450.00	    61.237
  46.800	    483.33	    63.465
  46.820	    500.00	    64.550
  46.840	    391.67	    57.130
  46.860	    308.33	    50.690
  46.880	    341.67	    53.359
  46.900	    433.33	    60.093
  46.920	    433.33	    60.093
  46.940	    391.67	    57.130
  46.960	    400.00	    57.735
  46.980	    516.67	    65.617
  47.000	    341.67	    53.359
  47.020	    333.33	    52.705
  47.040	    483.33	    63.465
  47.060	    350.00	    54.006
  47.080	    383.33	    56.519
  47.100	    408.33	    58.333
  47.120	    408.33	    58.333
  47.140	    366.67	    55.277
  47.160	    375.00	    55.902
  47.180	    308.33	    50.690
  47.200	    408.33	    58.333
  47.220	    383.33	    56.519
  47.240	    366.67	    55.277
  47.260	    408.33	    58.333
  47.280	    466.67	    62.361
  47.300	    325.00	    52.042
  47.320	    341.67	    53.359
  47.340	    408.33	    58.333
  47.360	    416.67	    58.926
  47.380	    433.33	    60.093
  47.400	    441.67	    60.668
  47.420	    366.67	    55.277
  47.440	    475.00	    62.915
  47.460	    491.67	    64.010
  47.480	    341.67	    53.359
  47.500	    358.33	    54.645
  47.520	    333.33	    52.705
  47.540	    450.00	    61.237
  47.560	    341.67	    53.359
  47.580	    425.00	    59.512
  47.600	    433.33	    60.093
  47.620	    425.00	    59.512
  47.640	    375.00	    55.902
  47.660	    375.00	    55.902
  47.680	    325.00	    52.042
  47.700	    425.00	    59.512
  47.720	    425.00	    59.512
  47.740	    325.00	    52.042
  47.760	    458.33	    61.802
  47.780	    383.33	    56.519
  47.800	    400.00	    57.735
  47.820	    400.00	    57.735
  47.840	    408.33	    58.333
  47.860	    475.00	    62.915
  47.880	    366.67	    55.277
  47.900	    291.67	    49.301
  47.920	    366.67	    55.277
  47.940	    391.67	    57.130
  47.960	    383.33	    56.519
  47.980	    441.67	    60.668
  48.000	    366.67	    55.277
  48.020	    416.67	    58.926
  48.040	    441.67	    60.668
  48.060	    450.00	    61.237
  48.080	    350.00	    54.006
  48.100	    316.67	    51.370
  48.120	    400.00	    57.735
  48.140	    491.67	    64.010
  48.160	    325.00	    52.042
  48.180	    425.00	    59.512
  48.200	    375.00	    55.902
  48.220	    433.33	    60.093
  48.240	    475.00	    62.915
  48.260	    441.67	    60.668
  48.280	    366.67	    55.277
  48.300	    341.67	    53.359
  48.320	    383.33	    56.519
  48.340	    375.00	    55.902
  48.360	    400.00	    57.735
  48.380	    483.33	    63.465
  48.400	    366.67	    55.277
  48.420	    450.00	    61.237
  48.440	    441.67	    60.668
  48.460	    383.33	    56.519
  48.480	    391.67	    57.130
  48.500	    416.67	    58.926
  48.520	    400.00	    57.735
  48.540	    408.33	    58.333
  48.560	    483.33	    63.465
  48.580	    350.00	    54.006
  48.600	    408.33	    58.333
  48.620	    400.00	    57.735
  48.640	    441.67	    60.668
  48.660	    350.00	    54.006
  48.680	    325.00	    52.042
  48.700	    500.00	    64.550
  48.720	    333.33	    52.705
  48.740	    383.33	    56.519
  48.760	    450.00	    61.237
  48.780	    358.33	    54.645
  48.800	    425.00	    59.512
  48.820	    375.00	    55.902
  48.840	    400.00	    57.735
  48.860	    400.00	    57.735
  48.880	    458.33	    61.802
  48.900	    383.33	    56.519
  48.920	    408.33	    58.333
  48.940	    458.33	    61.802
  48.960	    425.00	    59.512
  48.980	    433.33	    60.093
  49.000	    366.67	    55.277
  49.020	    433.33	    60.093
  49.040	    308.33	    50.690
  49.060	    425.00	    59.512
  49.080	    400.00	    57.735
  49.100	    341.67	    53.359
  49.120	    383.33	    56.519
  49.140	    508.33	    65.085
  49.160	    475.00	    62.915
  49.180	    391.67	    57.130
  49.200	    408.33	    58.333
  49.220	    425.00	    59.512
  49.240	    491.67	    64.010
  49.260	    350.00	    54.006
  49.280	    383.33	    56.519
  49.300	    341.67	    53.359
  49.320	    383.33	    56.519
  49.340	    491.67	    64.010
  49.360	    366.67	    55.277
  49.380	    416.67	    58.926
  49.400	    358.33	    54.645
  49.420	    341.67	    53.359
  49.440	    325.00	    52.042
  49.460	    358.33	    54.645
  49.480	    333.33	    52.705
  49.500	    433.33	    60.093
  49.520	    466.67	    62.361
  49.540	    325.00	    52.042
  49.560	    491.67	    64.010
  49.580	    358.33	    54.645
  49.600	    366.67	    55.277
  49.620	    491.67	    64.010
  49.640	    383.33	    56.519
  49.660	    450.00	    61.237
  49.680	    441.67	    60.668
  49.700	    483.33	    63.465
  49.720	    458.33	    61.802
  49.740	    250.00	    45.644
  49.760	    366.67	    55.277
  49.780	    500.00	    64.550
  49.800	    433.33	    60.093
  49.820	    316.67	    51.370
  49.840	    358.33	    54.645
  49.860	    550.00	    67.700
  49.880	    358.33	    54.645
  49.900	    383.33	    56.519
  49.920	    383.33	    56.519
  49.940	    366.67	    55.277
  49.960	    316.67	    51.370
  49.980	    408.33	    58.333
  50.000	    416.67	    58.926
  50.020	    441.67	    60.668
  50.040	    375.00	    55.902
  50.060	    366.67	    55.277
  50.080	    400.00	    57.735
  50.100	    358.33	    54.645
  50.120	    325.00	    52.042
  50.140	    416.67	    58.926
  50.160	    325.00	    52.042
  50.180	    383.33	    56.519
  50.200	    500.00	    64.550
  50.220	    366.67	    55.277
  50.240	    325.00	    52.042
  50.260	    425.00	    59.512
  50.280	    425.00	    59.512
  50.300	    525.00	    66.144
  50.320	    425.00	    59.512
  50.340	    641.67	    73.125
  50.360	    616.67	    71.686
  50.380	    325.00	    52.042
  50.400	    366.67	    55.277
  50.420	    383.33	    56.519
  50.440	    425.00	    59.512
  50.460	    441.67	    60.668
  50.480	    491.67	    64.010
  50.500	    416.67	    58.926
  50.520	    358.33	    54.645
  50.540	    366.67	    55.277
  50.560	    416.67	    58.926
  50.580	    383.33	    56.519
  50.600	    333.33	    52.705
  50.620	    350.00	    54.006
  50.640	    366.67	    55.277
  50.660	    433.33	    60.093
  50.680	    366.67	    55.277
  50.700	    408.33	    58.333
  50.720	    400.00	    57.735
  50.740	    491.67	    64.010
  50.760	    475.00	    62.915
  50.780	    366.67	    55.277
  50.800	    508.33	    65.085
  50.820	    341.67	    53.359
  50.840	    483.33	    63.465
  50.860	    358.33	    54.645
  50.880	    483.33	    63.465
  50.900	    491.67	    64.010
  50.920	    383.33	    56.519
  50.940	    516.67	    65.617
  50.960	    400.00	    57.735
  50.980	    466.67	    62.361
  51.000	    375.00	    55.902
  51.020	    516.67	    65.617
  51.040	    433.33	    60.093
  51.060	    391.67	    57.130
  51.080	    375.00	    55.902
  51.100	    458.33	    61.802
  51.120	    333.33	    52.705
  51.140	    500.00	    64.550
  51.160	    441.67	    60.668
  51.180	    400.00	    57.735
  51.200	    375.00	    55.902
  51.220	    475.00	    62.915
  51.240	    416.67	    58.926
  51.260	    425.00	    59.512
  51.280	    500.00	    64.550
  51.300	    575.00	    69.222
  51.320	    425.00	    59.512
  51.340	    550.00	    67.700
  51.360	    366.67	    55.277
  51.380	    341.67	    53.359
  51.400	    508.33	    65.085
  51.420	    558.33	    68.211
  51.440	    533.33	    66.667
  51.460	    483.33	    63.465
  51.480	    650.00	    73.598
  51.500	    483.33	    63.465
  51.520	    541.67	    67.185
  51.540	    641.67	    73.125
  51.560	    541.67	    67.185
  51.580	    750.00	    79.057
  51.600	    708.33	    76.830
  51.620	    758.33	    79.495
  51.640	    975.00	    90.139
  51.660	    841.67	    83.749
  51.680	   1083.33	    95.015
  51.700	   1066.67	    94.281
  51.720	   1358.33	   106.393
  51.740	   1508.33	   112.114
  51.760	   1641.67	   116.964
  51.780	   1875.00	   125.000
  51.800	   2525.00	   145.057
  51.820	   2783.33	   152.297
  51.840	   3291.67	   165.622
  51.860	   3425.00	   168.943
  51.880	   3983.33	   182.193
  51.900	   4416.67	   191.848
  51.920	   3891.67	   180.085
  51.940	   4475.00	   193.111
  51.960	   3908.33	   180.470
  51.980	   3875.00	   179.699
  52.000	   3650.00	   174.404
  52.020	   3750.00	   176.777
  52.040	   3400.00	   168.325
  52.060	   2825.00	   153.433
  52.080	   2575.00	   146.487
  52.100	   2408.33	   141.667
  52.120	   1891.67	   125.554
  52.140	   1791.67	   122.191
  52.160	   1641.67	   116.964
  52.180	   1383.33	   107.367
  52.200	   1108.33	    96.105
  52.220	   1033.33	    92.796
  52.240	    891.67	    86.201
  52.260	    700.00	    76.376
  52.280	    775.00	    80.364
  52.300	    775.00	    80.364
  52.320	    708.33	    76.830
  52.340	    666.67	    74.536
  52.360	    675.00	    75.000
  52.380	    533.33	    66.667
  52.400	    525.00	    66.144
  52.420	    550.00	    67.700
  52.440	    541.67	    67.185
  52.460	    458.33	    61.802
  52.480	    475.00	    62.915
  52.500	    616.67	    71.686
  52.520	    408.33	    58.333
  52.540	    566.67	    68.718
  52.560	    441.67	    60.668
  52.580	    483.33	    63.465
  52.600	    441.67	    60.668
  52.620	    433.33	    60.093
  52.640	    500.00	    64.550
  52.660	    383.33	    56.519
  52.680	    466.67	    62.361
  52.700	    491.67	    64.010
  52.720	    450.00	    61.237
  52.740	    358.33	    54.645
  52.760	    491.67	    64.010
  52.780	    250.00	    45.644
  52.800	    533.33	    66.667
  52.820	    383.33	    56.519
  52.840	    500.00	    64.550
  52.860	    425.00	    59.512
  52.880	    400.00	    57.735
  52.900	    383.33	    56.519
  52.920	    458.33	    61.802
  52.940	    400.00	    57.735
  52.960	    441.67	    60.668
  52.980	    341.67	    53.359
  53.000	    450.00	    61.237
  53.020	    433.33	    60.093
  53.040	    391.67	    57.130
  53.060	    450.00	    61.237
  53.080	    325.00	    52.042
  53.100	    358.33	    54.645
  53.120	    391.67	    57.130
  53.140	    433.33	    60.093
  53.160	    441.67	    60.668
  53.180	    450.00	    61.237
  53.200	    408.33	    58.333
  53.220	    375.00	    55.902
  53.240	    383.33	    56.519
  53.260	    341.67	    53.359
  53.280	    350.00	    54.006
  53.300	    425.00	    59.512
  53.320	    541.67	    67.185
  53.340	    408.33	    58.333
  53.360	    358.33	    54.645
  53.380	    433.33	    60.093
  53.400	    458.33	    61.802
  53.420	    408.33	    58.333
  53.440	    316.67	    51.370
  53.460	    400.00	    57.735
  53.480	    316.67	    51.370
  53.500	    391.67	    57.130
  53.520	    550.00	    67.700
  53.540	    358.33	    54.645
  53.560	    283.33	    48.591
  53.580	    483.33	    63.465
  53.600	    391.67	    57.130
  53.620	    383.33	    56.519
  53.640	    391.67	    57.130
  53.660	    500.00	    64.550
  53.680	    516.67	    65.617
  53.700	    383.33	    56.519
  53.720	    400.00	    57.735
  53.740	    366.67	    55.277
  53.760	    383.33	    56.519
  53.780	    391.67	    57.130
  53.800	    383.33	    56.519
  53.820	    408.33	    58.333
  53.840	    300.00	    50.000
  53.860	    375.00	    55.902
  53.880	    316.67	    51.370
  53.900	    341.67	    53.359
  53.920	    400.00	    57.735
  53.940	    500.00	    64.550
  53.960	    425.00	    59.512
  53.980	    308.33	    50.690
  54.000	    325.00	    52.042
  54.020	    366.67	    55.277
  54.040	    491.67	    64.010
  54.060	    366.67	    55.277
  54.080	    341.67	    53.359
  54.100	    475.00	    62.915
  54.120	    450.00	    61.237
  54.140	    275.00	    47.871
  54.160	    325.00	    52.042
  54.180	    383.33	    56.519
  54.200	    425.00	    59.512
  54.220	    450.00	    61.237
  54.240	    441.67	    60.668
  54.260	    375.00	    55.902
  54.280	    550.00	    67.700
  54.300	    433.33	    60.093
  54.320	    300.00	    50.000
  54.340	    425.00	    59.512
  54.360	    266.67	    47.140
  54.380	    483.33	    63.465
  54.400	    416.67	    58.926
  54.420	    300.00	    50.000
  54.440	    433.33	    60.093
  54.460	    433.33	    60.093
  54.480	    383.33	    56.519
  54.500	    308.33	    50.690
  54.520	    366.67	    55.277
  54.540	    425.00	    59.512
  54.560	    358.33	    54.645
  54.580	    258.33	    46.398
  54.600	    441.67	    60.668
  54.620	    366.67	    55.277
  54.640	    350.00	    54.006
  54.660	    400.00	    57.735
  54.680	    375.00	    55.902
  54.700	    341.67	    53.359
  54.720	    433.33	    60.093
  54.740	    366.67	    55.277
  54.760	    383.33	    56.519
  54.780	    441.67	    60.668
  54.800	    325.00	    52.042
  54.820	    375.00	    55.902
  54.840	    433.33	    60.093
  54.860	    408.33	    58.333
  54.880	    350.00	    54.006
  54.900	    325.00	    52.042
  54.920	    416.67	    58.926
  54.940	    350.00	    54.006
  54.960	    366.67	    55.277
  54.980	    425.00	    59.512
  55.000	    366.67	    55.277
  55.020	    275.00	    47.871
  55.040	    375.00	    55.902
  55.060	    391.67	    57.130
  55.080	    358.33	    54.645
  55.100	    400.00	    57.735
  55.120	    325.00	    52.042
  55.140	    366.67	    55.277
  55.160	    458.33	    61.802
  55.180	    433.33	    60.093
  55.200	    433.33	    60.093
  55.220	    458.33	    61.802
  55.240	    333.33	    52.705
  55.260	    408.33	    58.333
  55.280	    425.00	    59.512
  55.300	    350.00	    54.006
  55.320	    416.67	    58.926
  55.340	    358.33	    54.645
  55.360	    350.00	    54.006
  55.380	    416.67	    58.926
  55.400	    375.00	    55.902
  55.420	    325.00	    52.042
  55.440	    483.33	    63.465
  55.460	    408.33	    58.333
  55.480	    416.67	    58.926
  55.500	    375.00	    55.902
  55.520	    366.67	    55.277
  55.540	    416.67	    58.926
  55.560	    425.00	    59.512
  55.580	    291.67	    49.301
  55.600	    466.67	    62.361
  55.620	    450.00	    61.237
  55.640	    300.00	    50.000
  55.660	    383.33	    56.519
  55.680	    475.00	    62.915
  55.700	    408.33	    58.333
  55.720	    308.33	    50.690
  55.740	    408.33	    58.333
  55.760	    366.67	    55.277
  55.780	    291.67	    49.301
  55.800	    466.67	    62.361
  55.820	    341.67	    53.359
  55.840	    366.67	    55.277
  55.860	    358.33	    54.645
  55.880	    475.00	    62.915
  55.900	    358.33	    54.645
  55.920	    300.00	    50.000
  55.940	    366.67	    55.277
  55.960	    375.00	    55.902
  55.980	    291.67	    49.301
  56.000	    408.33	    58.333
  56.020	    391.67	    57.130
  56.040	    316.67	    51.370
  56.060	    441.67	    60.668
  56.080	    400.00	    57.735
  56.100	    391.67	    57.130
  56.120	    341.67	    53.359
  56.140	    400.00	    57.735
  56.160	    400.00	    57.735
  56.180	    325.00	    52.042
  56.200	    391.67	    57.130
  56.220	    383.33	    56.519
  56.240	    375.00	    55.902
  56.260	    391.67	    57.130
  56.280	    341.67	    53.359
  56.300	    475.00	    62.915
  56.320	    366.67	    55.277
  56.340	    350.00	    54.006
  56.360	    325.00	    52.042
  56.380	    391.67	    57.130
  56.400	    241.67	    44.876
  56.420	    400.00	    57.735
  56.440	    433.33	    60.093
  56.460	    358.33	    54.645
  56.480	    391.67	    57.130
  56.500	    358.33	    54.645
  56.520	    391.67	    57.130
  56.540	    383.33	    56.519
  56.560	    325.00	    52.042
  56.580	    400.00	    57.735
  56.600	    441.67	    60.668
  56.620	    425.00	    59.512
  56.640	    358.33	    54.645
  56.660	    350.00	    54.006
  56.680	    375.00	    55.902
  56.700	    325.00	    52.042
  56.720	    358.33	    54.645
  56.740	    333.33	    52.705
  56.760	    383.33	    56.519
  56.780	    425.00	    59.512
  56.800	    308.33	    50.690
  56.820	    341.67	    53.359
  56.840	    383.33	    56.519
  56.860	    433.33	    60.093
  56.880	    350.00	    54.006
  56.900	    400.00	    57.735
  56.920	    425.00	    59.512
  56.940	    358.33	    54.645
  56.960	    425.00	    59.512
  56.980	    341.67	    53.359
  57.000	    375.00	    55.902
  57.020	    375.00	    55.902
  57.040	    325.00	    52.042
  57.060	    375.00	    55.902
  57.080	    400.00	    57.735
  57.100	    400.00	    57.735
  57.120	    375.00	    55.902
  57.140	    333.33	    52.705
  57.160	    391.67	    57.130
  57.180	    300.00	    50.000
  57.200	    408.33	    58.333
  57.220	    333.33	    52.705
  57.240	    433.33	    60.093
  57.260	    350.00	    54.006
  57.280	    291.67	    49.301
  57.300	    366.67	    55.277
  57.320	    366.67	    55.277
  57.340	    400.00	    57.735
  57.360	    391.67	    57.130
  57.380	    350.00	    54.006
  57.400	    316.67	    51.370
  57.420	    283.33	    48.591
  57.440	    283.33	    48.591
  57.460	    425.00	    59.512
  57.480	    241.67	    44.876
  57.500	    358.33	    54.645
  57.520	    358.33	    54.645
  57.540	    325.00	    52.042
  57.560	    425.00	    59.512
  57.580	    400.00	    57.735
  57.600	    358.33	    54.645
  57.620	    325.00	    52.042
  57.640	    375.00	    55.902
  57.660	    291.67	    49.301
  57.680	    333.33	    52.705
  57.700	    400.00	    57.735
  57.720	    366.67	    55.277
  57.740	    375.00	    55.902
  57.760	    275.00	    47.871
  57.780	    350.00	    54.006
  57.800	    383.33	    56.519
  57.820	    308.33	    50.690
  57.840	    383.33	    56.519
  57.860	    341.67	    53.359
  57.880	    233.33	    44.096
  57.900	    375.00	    55.902
  57.920	    383.33	    56.519
  57.940	    408.33	    58.333
  57.960	    375.00	    55.902
  57.980	    350.00	    54.006
  58.000	    358.33	    54.645
  58.020	    391.67	    57.130
  58.040	    383.33	    56.519
  58.060	    425.00	    59.512
  58.080	    425.00	    59.512
  58.100	    466.67	    62.361
  58.120	    316.67	    51.370
  58.140	    358.33	    54.645
  58.160	    375.00	    55.902
  58.180	    316.67	    51.370
  58.200	    341.67	    53.359
  58.220	    483.33	    63.465
  58.240	    291.67	    49.301
  58.260	    300.00	    50.000
  58.280	    383.33	    56.519
  58.300	    325.00	    52.042
  58.320	    375.00	    55.902
  58.340	    333.33	    52.705
  58.360	    425.00	    59.512
  58.380	    383.33	    56.519
  58.400	    400.00	    57.735
  58.420	    275.00	    47.871
  58.440	    333.33	    52.705
  58.460	    416.67	    58.926
  58.480	    391.67	    57.130
  58.500	    508.33	    65.085
  58.520	    383.33	    56.519
  58.540	    491.67	    64.010
  58.560	    308.33	    50.690
  58.580	    450.00	    61.237
  58.600	    391.67	    57.130
  58.620	    316.67	    51.370
  58.640	    366.67	    55.277
  58.660	    441.67	    60.668
  58.680	    308.33	    50.690
  58.700	    450.00	    61.237
  58.720	    291.67	    49.301
  58.740	    358.33	    54.645
  58.760	    316.67	    51.370
  58.780	    366.67	    55.277
  58.800	    441.67	    60.668
  58.820	    275.00	    47.871
  58.840	    366.67	    55.277
  58.860	    425.00	    59.512
  58.880	    316.67	    51.370
  58.900	    541.67	    67.185
  58.920	    316.67	    51.370
  58.940	    366.67	    55.277
  58.960	    325.00	    52.042
  58.980	    383.33	    56.519
  59.000	    366.67	    55.277
  59.020	    233.33	    44.096
  59.040	    341.67	    53.359
  59.060	    375.00	    55.902
  59.080	    275.00	    47.871
  59.100	    316.67	    51.370
  59.120	    300.00	    50.000
  59.140	    341.67	    53.359
  59.160	    408.33	    58.333
  59.180	    400.00	    57.735
  59.200	    400.00	    57.735
  59.220	    516.67	    65.617
  59.240	    391.67	    57.130
  59.260	    483.33	    63.465
  59.280	    450.00	    61.237
  59.300	    383.33	    56.519
  59.320	    325.00	    52.042
  59.340	    366.67	    55.277
  59.360	    483.33	    63.465
  59.380	    216.67	    42.492
  59.400	    383.33	    56.519
  59.420	    450.00	    61.237
  59.440	    408.33	    58.333
  59.460	    425.00	    59.512
  59.480	    408.33	    58.333
  59.500	    333.33	    52.705
  59.520	    383.33	    56.519
  59.540	    333.33	    52.705
  59.560	    383.33	    56.519
  59.580	    325.00	    52.042
  59.600	    425.00	    59.512
  59.620	    341.67	    53.359
  59.640	    308.33	    50.690
  59.660	    400.00	    57.735
  59.680	    300.00	    50.000
  59.700	    416.67	    58.926
  59.720	    491.67	    64.010
  59.740	    325.00	    52.042
  59.760	    458.33	    61.802
  59.780	    408.33	    58.333
  59.800	    391.67	    57.130
  59.820	    308.33	    50.690
  59.840	    441.67	    60.668
  59.860	    283.33	    48.591
  59.880	    216.67	    42.492
  59.900	    316.67	    51.370
  59.920	    333.33	    52.705
  59.940	    275.00	    47.871
  59.960	    341.67	    53.359
  59.980	    341.67	    53.359
  60.000	    300.00	    50.000
  60.020	    408.33	    58.333
  60.040	    316.67	    51.370
  60.060	    441.67	    60.668
  60.080	    325.00	    52.042
  60.100	    358.33	    54.645
  60.120	    341.67	    53.359
  60.140	    308.33	    50.690
  60.160	    291.67	    49.301
  60.180	    300.00	    50.000
  60.200	    358.33	    54.645
  60.220	    350.00	    54.006
  60.240	    375.00	    55.902
  60.260	    341.67	    53.359
  60.280	    350.00	    54.006
  60.300	    366.67	    55.277
  60.320	    283.33	    48.591
  60.340	    350.00	    54.006
  60.360	    366.67	    55.277
  60.380	    341.67	    53.359
  60.400	    366.67	    55.277
  60.420	    366.67	    55.277
  60.440	    391.67	    57.130
  60.460	    358.33	    54.645
  60.480	    366.67	    55.277
  60.500	    475.00	    62.915
  60.520	    300.00	    50.000
  60.540	    350.00	    54.006
  60.560	    425.00	    59.512
  60.580	    483.33	    63.465
  60.600	    258.33	    46.398
  60.620	    416.67	    58.926
  60.640	    466.67	    62.361
  60.660	    325.00	    52.042
  60.680	    341.67	    53.359
  60.700	    450.00	    61.237
  60.720	    483.33	    63.465
  60.740	    341.67	    53.359
  60.760	    416.67	    58.926
  60.780	    350.00	    54.006
  60.800	    358.33	    54.645
  60.820	    325.00	    52.042
  60.840	    433.33	    60.093
  60.860	    375.00	    55.902
  60.880	    391.67	    57.130
  60.900	    433.33	    60.093
  60.920	    275.00	    47.871
  60.940	    441.67	    60.668
  60.960	    433.33	    60.093
  60.980	    508.33	    65.085
  61.000	    300.00	    50.000
  61.020	    366.67	    55.277
  61.040	    383.33	    56.519
  61.060	    333.33	    52.705
  61.080	    433.33	    60.093
  61.100	    333.33	    52.705
  61.120	    333.33	    52.705
  61.140	    316.67	    51.370
  61.160	    366.67	    55.277
  61.180	    475.00	    62.915
  61.200	    391.67	    57.130
  61.220	    275.00	    47.871
  61.240	    341.67	    53.359
  61.260	    375.00	    55.902
  61.280	    300.00	    50.000
  61.300	    400.00	    57.735
  61.320	    450.00	    61.237
  61.340	    508.33	    65.085
  61.360	    391.67	    57.130
  61.380	    458.33	    61.802
  61.400	    233.33	    44.096
  61.420	    333.33	    52.705
  61.440	    316.67	    51.370
  61.460	    325.00	    52.042
  61.480	    450.00	    61.237
  61.500	    425.00	    59.512
  61.520	    366.67	    55.277
  61.540	    425.00	    59.512
  61.560	    458.33	    61.802
  61.580	    391.67	    57.130
  61.600	    316.67	    51.370
  61.620	    425.00	    59.512
  61.640	    400.00	    57.735
  61.660	    391.67	    57.130
  61.680	    433.33	    60.093
  61.700	    391.67	    57.130
  61.720	    266.67	    47.140
  61.740	    383.33	    56.519
  61.760	    466.67	    62.361
  61.780	    400.00	    57.735
  61.800	    366.67	    55.277
  61.820	    333.33	    52.705
  61.840	    341.67	    53.359
  61.860	    400.00	    57.735
  61.880	    416.67	    58.926
  61.900	    400.00	    57.735
  61.920	    333.33	    52.705
  61.940	    300.00	    50.000
  61.960	    383.33	    56.519
  61.980	    333.33	    52.705
  62.000	    416.67	    58.926
  62.020	    308.33	    50.690
  62.040	    383.33	    56.519
  62.060	    341.67	    53.359
  62.080	    358.33	    54.645
  62.100	    433.33	    60.093
  62.120	    391.67	    57.130
  62.140	    358.33	    54.645
  62.160	    341.67	    53.359
  62.180	    375.00	    55.902
  62.200	    350.00	    54.006
  62.220	    391.67	    57.130
  62.240	    333.33	    52.705
  62.260	    308.33	    50.690
  62.280	    350.00	    54.006
  62.300	    291.67	    49.301
  62.320	    308.33	    50.690
  62.340	    358.33	    54.645
  62.360	    366.67	    55.277
  62.380	    375.00	    55.902
  62.400	    300.00	    50.000
  62.420	    316.67	    51.370
  62.440	    358.33	    54.645
  62.460	    308.33	    50.690
  62.480	    441.67	    60.668
  62.500	    258.33	    46.398
  62.520	    341.67	    53.359
  62.540	    358.33	    54.645
  62.560	    325.00	    52.042
  62.580	    350.00	    54.006
  62.600	    350.00	    54.006
  62.620	    316.67	    51.370
  62.640	    266.67	    47.140
  62.660	    466.67	    62.361
  62.680	    366.67	    55.277
  62.700	    366.67	    55.277
  62.720	    375.00	    55.902
  62.740	    316.67	    51.370
  62.760	    275.00	    47.871
  62.780	    291.67	    49.301
  62.800	    375.00	    55.902
  62.820	    391.67	    57.130
  62.840	    391.67	    57.130
  62.860	    308.33	    50.690
  62.880	    450.00	    61.237
  62.900	    450.00	    61.237
  62.920	    408.33	    58.333
  62.940	    400.00	    57.735
  62.960	    475.00	    62.915
  62.980	    350.00	    54.006
  63.000	    400.00	    57.735
  63.020	    325.00	    52.042
  63.040	    316.67	    51.370
  63.060	    275.00	    47.871
  63.080	    275.00	    47.871
  63.100	    266.67	    47.140
  63.120	    433.33	    60.093
  63.140	    358.33	    54.645
  63.160	    408.33	    58.333
  63.180	    391.67	    57.130
  63.200	    383.33	    56.519
  63.220	    416.67	    58.926
  63.240	    358.33	    54.645
  63.260	    300.00	    50.000
  63.280	    341.67	    53.359
  63.300	    316.67	    51.370
  63.320	    450.00	    61.237
  63.340	    433.33	    60.093
  63.360	    350.00	    54.006
  63.380	    300.00	    50.000
  63.400	    283.33	    48.591
  63.420	    375.00	    55.902
  63.440	    375.00	    55.902
  63.460	    466.67	    62.361
  63.480	    383.33	    56.519
  63.500	    366.67	    55.277
  63.520	    325.00	    52.042
  63.540	    400.00	    57.735
  63.560	    358.33	    54.645
  63.580	    350.00	    54.006
  63.600	    341.67	    53.359
  63.620	    425.00	    59.512
  63.640	    391.67	    57.130
  63.660	    391.67	    57.130
  63.680	    308.33	    50.690
  63.700	    400.00	    57.735
  63.720	    325.00	    52.042
  63.740	    316.67	    51.370
  63.760	    391.67	    57.130
  63.780	    350.00	    54.006
  63.800	    333.33	    52.705
  63.820	    475.00	    62.915
  63.840	    291.67	    49.301
  63.860	    300.00	    50.000
  63.880	    433.33	    60.093
  63.900	    308.33	    50.690
  63.920	    375.00	    55.902
  63.940	    400.00	    57.735
  63.960	    366.67	    55.277
  63.980	    291.67	    49.301
  64.000	    341.67	    53.359
  64.020	    450.00	    61.237
  64.040	    266.67	    47.140
  64.060	    333.33	    52.705
  64.080	    283.33	    48.591
  64.100	    425.00	    59.512
  64.120	    408.33	    58.333
  64.140	    400.00	    57.735
  64.160	    391.67	    57.130
  64.180	    391.67	    57.130
  64.200	    341.67	    53.359
  64.220	    408.33	    58.333
  64.240	    383.33	    56.519
  64.260	    275.00	    47.871
  64.280	    408.33	    58.333
  64.300	    475.00	    62.915
  64.320	    300.00	    50.000
  64.340	    283.33	    48.591
  64.360	    433.33	    60.093
  64.380	    350.00	    54.006
  64.400	    258.33	    46.398
  64.420	    350.00	    54.006
  64.440	    408.33	    58.333
  64.460	    391.67	    57.130
  64.480	    408.33	    58.333
  64.500	    341.67	    53.359
  64.520	    333.33	    52.705
  64.540	    441.67	    60.668
  64.560	    225.00	    43.301
  64.580	    250.00	    45.644
  64.600	    325.00	    52.042
  64.620	    400.00	    57.735
  64.640	    341.67	    53.359
  64.660	    333.33	    52.705
  64.680	    333.33	    52.705
  64.700	    266.67	    47.140
  64.720	    391.67	    57.130
  64.740	    325.00	    52.042
  64.760	    250.00	    45.644
  64.780	    291.67	    49.301
  64.800	    433.33	    60.093
  64.820	    408.33	    58.333
  64.840	    450.00	    61.237
  64.860	    333.33	    52.705
  64.880	    291.67	    49.301
  64.900	    391.67	    57.130
  64.920	    366.67	    55.277
  64.940	    375.00	    55.902
  64.960	    433.33	    60.093
  64.980	    333.33	    52.705
  65.000	    333.33	    52.705
  65.020	    283.33	    48.591
  65.040	    425.00	    59.512
  65.060	    450.00	    61.237
  65.080	    350.00	    54.006
  65.100	    358.33	    54.645
  65.120	    333.33	    52.705
  65.140	    316.67	    51.370
  65.160	    333.33	    52.705
  65.180	    358.33	    54.645
  65.200	    275.00	    47.871
  65.220	    358.33	    54.645
  65.240	    341.67	    53.359
  65.260	    366.67	    55.277
  65.280	    275.00	    47.871
  65.300	    308.33	    50.690
  65.320	    308.33	    50.690
  65.340	    366.67	    55.277
  65.360	    391.67	    57.130
  65.380	    283.33	    48.591
  65.400	    408.33	    58.333
  65.420	    416.67	    58.926
  65.440	    375.00	    55.902
  65.460	    333.33	    52.705
  65.480	    308.33	    50.690
  65.500	    366.67	    55.277
  65.520	    308.33	    50.690
  65.540	    258.33	    46.398
  65.560	    316.67	    51.370
  65.580	    408.33	    58.333
  65.600	    375.00	    55.902
  65.620	    450.00	    61.237
  65.640	    375.00	    55.902
  65.660	    375.00	    55.902
  65.680	    391.67	    57.130
  65.700	    383.33	    56.519
  65.720	    358.33	    54.645
  65.740	    316.67	    51.370
  65.760	    441.67	    60.668
  65.780	    416.67	    58.926
  65.800	    375.00	    55.902
  65.820	    400.00	    57.735
  65.840	    316.67	    51.370
  65.860	    358.33	    54.645
  65.880	    325.00	    52.042
  65.900	    350.00	    54.006
  65.920	    266.67	    47.140
  65.940	    408.33	    58.333
  65.960	    366.67	    55.277
  65.980	    333.33	    52.705
  66.000	    425.00	    59.512
  66.020	    300.00	    50.000
  66.040	    391.67	    57.130
  66.060	    291.67	    49.301
  66.080	    233.33	    44.096
  66.100	    300.00	    50.000
  66.120	    325.00	    52.042
  66.140	    458.33	    61.802
  66.160	    400.00	    57.735
  66.180	    391.67	    57.130
  66.200	    308.33	    50.690
  66.220	    350.00	    54.006
  66.240	    350.00	    54.006
  66.260	    325.00	    52.042
  66.280	    266.67	    47.140
  66.300	    291.67	    49.301
  66.320	    266.67	    47.140
  66.340	    275.00	    47.871
  66.360	    425.00	    59.512
  66.380	    341.67	    53.359
  66.400	    425.00	    59.512
  66.420	    425.00	    59.512
  66.440	    366.67	    55.277
  66.460	    316.67	    51.370
  66.480	    400.00	    57.735
  66.500	    333.33	    52.705
  66.520	    391.67	    57.130
  66.540	    466.67	    62.361
  66.560	    350.00	    54.006
  66.580	    375.00	    55.902
  66.600	    433.33	    60.093
  66.620	    325.00	    52.042
  66.640	    391.67	    57.130
  66.660	    358.33	    54.645
  66.680	    383.33	    56.519
  66.700	    408.33	    58.333
  66.720	    416.67	    58.926
  66.740	    316.67	    51.370
  66.760	    408.33	    58.333
  66.780	    308.33	    50.690
  66.800	    300.00	    50.000
  66.820	    341.67	    53.359
  66.840	    383.33	    56.519
  66.860	    408.33	    58.333
  66.880	    316.67	    51.370
  66.900	    325.00	    52.042
  66.920	    308.33	    50.690
  66.940	    291.67	    49.301
  66.960	    325.00	    52.042
  66.980	    341.67	    53.359
  67.000	    425.00	    59.512
  67.020	    316.67	    51.370
  67.040	    400.00	    57.735
  67.060	    325.00	    52.042
  67.080	    400.00	    57.735
  67.100	    350.00	    54.006
  67.120	    358.33	    54.645
  67.140	    325.00	    52.042
  67.160	    391.67	    57.130
  67.180	    375.00	    55.902
  67.200	    341.67	    53.359
  67.220	    375.00	    55.902
  67.240	    308.33	    50.690
  67.260	    300.00	    50.000
  67.280	    325.00	    52.042
  67.300	    375.00	    55.902
  67.320	    350.00	    54.006
  67.340	    416.67	    58.926
  67.360	    316.67	    51.370
  67.380	    383.33	    56.519
  67.400	    283.33	    48.591
  67.420	    375.00	    55.902
  67.440	    341.67	    53.359
  67.460	    300.00	    50.000
  67.480	    300.00	    50.000
  67.500	    308.33	    50.690
  67.520	    350.00	    54.006
  67.540	    275.00	    47.871
  67.560	    433.33	    60.093
  67.580	    308.33	    50.690
  67.600	    466.67	    62.361
  67.620	    275.00	    47.871
  67.640	    433.33	    60.093
  67.660	    308.33	    50.690
  67.680	    400.00	    57.735
  67.700	    325.00	    52.042
  67.720	    375.00	    55.902
  67.740	    375.00	    55.902
  67.760	    383.33	    56.519
  67.780	    325.00	    52.042
  67.800	    258.33	    46.398
  67.820	    325.00	    52.042
  67.840	    400.00	    57.735
  67.860	    316.67	    51.370
  67.880	    433.33	    60.093
  67.900	    350.00	    54.006
  67.920	    358.33	    54.645
  67.940	    308.33	    50.690
  67.960	    366.67	    55.277
  67.980	    383.33	    56.519
  68.000	    408.33	    58.333
  68.020	    300.00	    50.000
  68.040	    300.00	    50.000
  68.060	    266.67	    47.140
  68.080	    283.33	    48.591
  68.100	    375.00	    55.902
  68.120	    325.00	    52.042
  68.140	    350.00	    54.006
  68.160	    325.00	    52.042
  68.180	    325.00	    52.042
  68.200	    300.00	    50.000
  68.220	    425.00	    59.512
  68.240	    350.00	    54.006
  68.260	    366.67	    55.277
  68.280	    291.67	    49.301
  68.300	    350.00	    54.006
  68.320	    375.00	    55.902
  68.340	    350.00	    54.006
  68.360	    383.33	    56.519
  68.380	    391.67	    57.130
  68.400	    433.33	    60.093
  68.420	    316.67	    51.370
  68.440	    316.67	    51.370
  68.460	    416.67	    58.926
  68.480	    341.67	    53.359
  68.500	    308.33	    50.690
  68.520	    400.00	    57.735
  68.540	    366.67	    55.277
  68.560	    341.67	    53.359
  68.580	    266.67	    47.140
  68.600	    391.67	    57.130
  68.620	    391.67	    57.130
  68.640	    275.00	    47.871
  68.660	    358.33	    54.645
  68.680	    383.33	    56.519
  68.700	    366.67	    55.277
  68.720	    383.33	    56.519
  68.740	    408.33	    58.333
  68.760	    275.00	    47.871
  68.780	    358.33	    54.645
  68.800	    358.33	    54.645
  68.820	    350.00	    54.006
  68.840	    341.67	    53.359
  68.860	    350.00	    54.006
  68.880	    425.00	    59.512
  68.900	    350.00	    54.006
  68.920	    450.00	    61.237
  68.940	    333.33	    52.705
  68.960	    350.00	    54.006
  68.980	    350.00	    54.006
  69.000	    383.33	    56.519
  69.020	    416.67	    58.926
  69.040	    333.33	    52.705
  69.060	    408.33	    58.333
  69.080	    275.00	    47.871
  69.100	    283.33	    48.591
  69.120	    441.67	    60.668
  69.140	    308.33	    50.690
  69.160	    366.67	    55.277
  69.180	    341.67	    53.359
  69.200	    375.00	    55.902
  69.220	    383.33	    56.519
  69.240	    308.33	    50.690
  69.260	    400.00	    57.735
  69.280	    366.67	    55.277
  69.300	    325.00	    52.042
  69.320	    400.00	    57.735
  69.340	    400.00	    57.735
  69.360	    366.67	    55.277
  69.380	    325.00	    52.042
  69.400	    366.67	    55.277
  69.420	    375.00	    55.902
  69.440	    408.33	    58.333
  69.460	    433.33	    60.093
  69.480	    300.00	    50.000
  69.500	    375.00	    55.902
  69.520	    325.00	    52.042
  69.540	    366.67	    55.277
  69.560	    316.67	    51.370
  69.580	    425.00	    59.512
  69.600	    325.00	    52.042
  69.620	    375.00	    55.902
  69.640	    341.67	    53.359
  69.660	    316.67	    51.370
  69.680	    358.33	    54.645
  69.700	    308.33	    50.690
  69.720	    316.67	    51.370
  69.740	    275.00	    47.871
  69.760	    283.33	    48.591
  69.780	    375.00	    55.902
  69.800	    358.33	    54.645
  69.820	    300.00	    50.000
  69.840	    366.67	    55.277
  69.860	    308.33	    50.690
  69.880	    350.00	    54.006
  69.900	    416.67	    58.926
  69.920	    316.67	    51.370
  69.940	    441.67	    60.668
  69.960	    333.33	    52.705
  69.980	    325.00	    52.042
  70.000	    291.67	    49.301
  70.020	    308.33	    50.690
  70.040	    308.33	    50.690
  70.060	    308.33	    50.690
  70.080	    416.67	    58.926
  70.100	    308.33	    50.690
  70.120	    433.33	    60.093
  70.140	    366.67	    55.277
  70.160	    391.67	    57.130
  70.180	    233.33	    44.096
  70.200	    350.00	    54.006
  70.220	    308.33	    50.690
  70.240	    350.00	    54.006
  70.260	    300.00	    50.000
  70.280	    366.67	    55.277
  70.300	    341.67	    53.359
  70.320	    408.33	    58.333
  70.340	    433.33	    60.093
  70.360	    275.00	    47.871
  70.380	    350.00	    54.006
  70.400	    333.33	    52.705
  70.420	    433.33	    60.093
  70.440	    316.67	    51.370
  70.460	    325.00	    52.042
  70.480	    350.00	    54.006
  70.500	    325.00	    52.042
  70.520	    316.67	    51.370
  70.540	    341.67	    53.359
  70.560	    383.33	    56.519
  70.580	    333.33	    52.705
  70.600	    366.67	    55.277
  70.620	    375.00	    55.902
  70.640	    325.00	    52.042
  70.660	    383.33	    56.519
  70.680	    400.00	    57.735
  70.700	    358.33	    54.645
  70.720	    275.00	    47.871
  70.740	    291.67	    49.301
  70.760	    283.33	    48.591
  70.780	    383.33	    56.519
  70.800	    341.67	    53.359
  70.820	    308.33	    50.690
  70.840	    283.33	    48.591
  70.860	    441.67	    60.668
  70.880	    400.00	    57.735
  70.900	    316.67	    51.370
  70.920	    366.67	    55.277
  70.940	    400.00	    57.735
  70.960	    425.00	    59.512
  70.980	    291.67	    49.301
  71.000	    450.00	    61.237
  71.020	    308.33	    50.690
  71.040	    366.67	    55.277
  71.060	    275.00	    47.871
  71.080	    433.33	    60.093
  71.100	    375.00	    55.902
  71.120	    333.33	    52.705
  71.140	    291.67	    49.301
  71.160	    300.00	    50.000
  71.180	    391.67	    57.130
  71.200	    425.00	    59.512
  71.220	    316.67	    51.370
  71.240	    400.00	    57.735
  71.260	    308.33	    50.690
  71.280	    341.67	    53.359
  71.300	    283.33	    48.591
  71.320	    341.67	    53.359
  71.340	    258.33	    46.398
  71.360	    341.67	    53.359
  71.380	    333.33	    52.705
  71.400	    341.67	    53.359
  71.420	    341.67	    53.359
  71.440	    408.33	    58.333
  71.460	    425.00	    59.512
  71.480	    391.67	    57.130
  71.500	    375.00	    55.902
  71.520	    316.67	    51.370
  71.540	    391.67	    57.130
  71.560	    300.00	    50.000
  71.580	    308.33	    50.690
  71.600	    325.00	    52.042
  71.620	    408.33	    58.333
  71.640	    283.33	    48.591
  71.660	    308.33	    50.690
  71.680	    366.67	    55.277
  71.700	    283.33	    48.591
  71.720	    333.33	    52.705
  71.740	    341.67	    53.359
  71.760	    375.00	    55.902
  71.780	    341.67	    53.359
  71.800	    291.67	    49.301
  71.820	    358.33	    54.645
  71.840	    366.67	    55.277
  71.860	    350.00	    54.006
  71.880	    433.33	    60.093
  71.900	    308.33	    50.690
  71.920	    341.67	    53.359
  71.940	    341.67	    53.359
  71.960	    416.67	    58.926
  71.980	    300.00	    50.000
  72.000	    358.33	    54.645
  72.020	    408.33	    58.333
  72.040	    400.00	    57.735
  72.060	    291.67	    49.301
  72.080	    333.33	    52.705
  72.100	    216.67	    42.492
  72.120	    358.33	    54.645
  72.140	    258.33	    46.398
  72.160	    333.33	    52.705
  72.180	    375.00	    55.902
  72.200	    366.67	    55.277
  72.220	    316.67	    51.370
  72.240	    400.00	    57.735
  72.260	    383.33	    56.519
  72.280	    383.33	    56.519
  72.300	    250.00	    45.644
  72.320	    375.00	    55.902
  72.340	    391.67	    57.130
  72.360	    350.00	    54.006
  72.380	    308.33	    50.690
  72.400	    266.67	    47.140
  72.420	    516.67	    65.617
  72.440	    350.00	    54.006
  72.460	    350.00	    54.006
  72.480	    325.00	    52.042
  72.500	    225.00	    43.301
  72.520	    391.67	    57.130
  72.540	    241.67	    44.876
  72.560	    375.00	    55.902
  72.580	    266.67	    47.140
  72.600	    366.67	    55.277
  72.620	    391.67	    57.130
  72.640	    375.00	    55.902
  72.660	    483.33	    63.465
  72.680	    491.67	    64.010
  72.700	    358.33	    54.645
  72.720	    308.33	    50.690
  72.740	    308.33	    50.690
  72.760	    383.33	    56.519
  72.780	    341.67	    53.359
  72.800	    316.67	    51.370
  72.820	    433.33	    60.093
  72.840	    225.00	    43.301
  72.860	    391.67	    57.130
  72.880	    433.33	    60.093
  72.900	    383.33	    56.519
  72.920	    408.33	    58.333
  72.940	    358.33	    54.645
  72.960	    266.67	    47.140
  72.980	    266.67	    47.140
  73.000	    383.33	    56.519
  73.020	    350.00	    54.006
  73.040	    308.33	    50.690
  73.060	    300.00	    50.000
  73.080	    408.33	    58.333
  73.100	    358.33	    54.645
  73.120	    300.00	    50.000
  73.140	    358.33	    54.645
  73.160	    358.33	    54.645
  73.180	    333.33	    52.705
  73.200	    316.67	    51.370
  73.220	    441.67	    60.668
  73.240	    341.67	    53.359
  73.260	    266.67	    47.140
  73.280	    375.00	    55.902
  73.300	    333.33	    52.705
  73.320	    258.33	    46.398
  73.340	    333.33	    52.705
  73.360	    316.67	    51.370
  73.380	    341.67	    53.359
  73.400	    308.33	    50.690
  73.420	    375.00	    55.902
  73.440	    433.33	    60.093
  73.460	    433.33	    60.093
  73.480	    350.00	    54.006
  73.500	    341.67	    53.359
  73.520	    366.67	    55.277
  73.540	    375.00	    55.902
  73.560	    341.67	    53.359
  73.580	    366.67	    55.277
  73.600	    350.00	    54.006
  73.620	    308.33	    50.690
  73.640	    375.00	    55.902
  73.660	    350.00	    54.006
  73.680	    491.67	    64.010
  73.700	    300.00	    50.000
  73.720	    375.00	    55.902
  73.740	    366.67	    55.277
  73.760	    425.00	    59.512
  73.780	    400.00	    57.735
  73.800	    308.33	    50.690
  73.820	    325.00	    52.042
  73.840	    325.00	    52.042
  73.860	    291.67	    49.301
  73.880	    350.00	    54.006
  73.900	    308.33	    50.690
  73.920	    291.67	    49.301
  73.940	    383.33	    56.519
  73.960	    325.00	    52.042
  73.980	    366.67	    55.277
  74.000	    241.67	    44.876
  74.020	    333.33	    52.705
  74.040	    316.67	    51.370
  74.060	    383.33	    56.519
  74.080	    316.67	    51.370
  74.100	    275.00	    47.871
  74.120	    358.33	    54.645
  74.140	    383.33	    56.519
  74.160	    425.00	    59.512
  74.180	    366.67	    55.277
  74.200	    383.33	    56.519
  74.220	    391.67	    57.130
  74.240	    400.00	    57.735
  74.260	    341.67	    53.359
  74.280	    358.33	    54.645
  74.300	    358.33	    54.645
  74.320	    275.00	    47.871
  74.340	    375.00	    55.902
  74.360	    300.00	    50.000
  74.380	    391.67	    57.130
  74.400	    458.33	    61.802
  74.420	    383.33	    56.519
  74.440	    316.67	    51.370
  74.460	    400.00	    57.735
  74.480	    250.00	    45.644
  74.500	    275.00	    47.871
  74.520	    316.67	    51.370
  74.540	    366.67	    55.277
  74.560	    375.00	    55.902
  74.580	    358.33	    54.645
  74.600	    325.00	    52.042
  74.620	    300.00	    50.000
  74.640	    275.00	    47.871
  74.660	    291.67	    49.301
  74.680	    333.33	    52.705
  74.700	    416.67	    58.926
  74.720	    350.00	    54.006
  74.740	    316.67	    51.370
  74.760	    325.00	    52.042
  74.780	    308.33	    50.690
  74.800	    316.67	    51.370
  74.820	    266.67	    47.140
  74.840	    408.33	    58.333
  74.860	    383.33	    56.519
  74.880	    383.33	    56.519
  74.900	    425.00	    59.512
  74.920	    358.33	    54.645
  74.940	    308.33	    50.690
  74.960	    333.33	    52.705
  74.980	    391.67	    57.130
  75.000	    316.67	    51.370
  75.020	    316.67	    51.370
  75.040	    341.67	    53.359
  75.060	    458.33	    61.802
  75.080	    483.33	    63.465
  75.100	    450.00	    61.237
  75.120	    341.67	    53.359
  75.140	    383.33	    56.519
  75.160	    350.00	    54.006
  75.180	    358.33	    54.645
  75.200	    350.00	    54.006
  75.220	    300.00	    50.000
  75.240	    283.33	    48.591
  75.260	    316.67	    51.370
  75.280	    391.67	    57.130
  75.300	    458.33	    61.802
  75.320	    450.00	    61.237
  75.340	    350.00	    54.006
  75.360	    316.67	    51.370
  75.380	    350.00	    54.006
  75.400	    333.33	    52.705
  75.420	    441.67	    60.668
  75.440	    341.67	    53.359
  75.460	    391.67	    57.130
  75.480	    408.33	    58.333
  75.500	    475.00	    62.915
  75.520	    275.00	    47.871
  75.540	    366.67	    55.277
  75.560	    416.67	    58.926
  75.580	    450.00	    61.237
  75.600	    375.00	    55.902
  75.620	    466.67	    62.361
  75.640	    416.67	    58.926
  75.660	    350.00	    54.006
  75.680	    258.33	    46.398
  75.700	    325.00	    52.042
  75.720	    433.33	    60.093
  75.740	    308.33	    50.690
  75.760	    408.33	    58.333
  75.780	    325.00	    52.042
  75.800	    275.00	    47.871
  75.820	    350.00	    54.006
  75.840	    416.67	    58.926
  75.860	    425.00	    59.512
  75.880	    391.67	    57.130
  75.900	    500.00	    64.550
  75.920	    383.33	    56.519
  75.940	    383.33	    56.519
  75.960	    425.00	    59.512
  75.980	    366.67	    55.277
  76.000	    333.33	    52.705
  76.020	    408.33	    58.333
  76.040	    450.00	    61.237
  76.060	    366.67	    55.277
  76.080	    408.33	    58.333
  76.100	    516.67	    65.617
  76.120	    441.67	    60.668
  76.140	    658.33	    74.068
  76.160	    666.67	    74.536
  76.180	    600.00	    70.711
  76.200	    641.67	    73.125
  76.220	    733.33	    78.174
  76.240	    800.00	    81.650
  76.260	    800.00	    81.650
  76.280	    983.33	    90.523
  76.300	   1033.33	    92.796
  76.320	   1116.67	    96.465
  76.340	   1233.33	   101.379
  76.360	   1325.00	   105.079
  76.380	   1425.00	   108.972
  76.400	   1525.00	   112.731
  76.420	   1816.67	   123.040
  76.440	   1733.33	   120.185
  76.460	   1566.67	   114.261
  76.480	   1658.33	   117.556
  76.500	   1250.00	   102.062
  76.520	   1516.67	   112.423
  76.540	   1433.33	   109.291
  76.560	   1591.67	   115.169
  76.580	   1225.00	   101.036
  76.600	   1291.67	   103.749
  76.620	   1266.67	   102.740
  76.640	   1283.33	   103.414
  76.660	   1083.33	    95.015
  76.680	   1008.33	    91.667
  76.700	   1291.67	   103.749
  76.720	    866.67	    84.984
  76.740	    883.33	    85.797
  76.760	    808.33	    82.074
  76.780	    925.00	    87.797
  76.800	    791.67	    81.223
  76.820	    550.00	    67.700
  76.840	    566.67	    68.718
  76.860	    591.67	    70.218
  76.880	    441.67	    60.668
  76.900	    441.67	    60.668
  76.920	    516.67	    65.617
  76.940	    608.33	    71.200
  76.960	    441.67	    60.668
  76.980	    416.67	    58.926
  77.000	    466.67	    62.361
  77.020	    508.33	    65.085
  77.040	    508.33	    65.085
  77.060	    458.33	    61.802
  77.080	    541.67	    67.185
  77.100	    383.33	    56.519
  77.120	    475.00	    62.915
  77.140	    408.33	    58.333
  77.160	    425.00	    59.512
  77.180	    400.00	    57.735
  77.200	    316.67	    51.370
  77.220	    350.00	    54.006
  77.240	    291.67	    49.301
  77.260	    491.67	    64.010
  77.280	    333.33	    52.705
  77.300	    350.00	    54.006
  77.320	    333.33	    52.705
  77.340	    441.67	    60.668
  77.360	    375.00	    55.902
  77.380	    316.67	    51.370
  77.400	    433.33	    60.093
  77.420	    383.33	    56.519
  77.440	    350.00	    54.006
  77.460	    475.00	    62.915
  77.480	    383.33	    56.519
  77.500	    441.67	    60.668
  77.520	    300.00	    50.000
  77.540	    366.67	    55.277
  77.560	    433.33	    60.093
  77.580	    225.00	    43.301
  77.600	    341.67	    53.359
  77.620	    358.33	    54.645
  77.640	    350.00	    54.006
  77.660	    291.67	    49.301
  77.680	    316.67	    51.370
  77.700	    391.67	    57.130
  77.720	    241.67	    44.876
  77.740	    425.00	    59.512
  77.760	    308.33	    50.690
  77.780	    366.67	    55.277
  77.800	    266.67	    47.140
  77.820	    441.67	    60.668
  77.840	    325.00	    52.042
  77.860	    358.33	    54.645
  77.880	    333.33	    52.705
  77.900	    341.67	    53.359
  77.920	    366.67	    55.277
  77.940	    366.67	    55.277
  77.960	    366.67	    55.277
  77.980	    266.67	    47.140
  78.000	    358.33	    54.645
  78.020	    433.33	    60.093
  78.040	    358.33	    54.645
  78.060	    350.00	    54.006
  78.080	    325.00	    52.042
  78.100	    325.00	    52.042
  78.120	    316.67	    51.370
  78.140	    366.67	    55.277
  78.160	    308.33	    50.690
  78.180	    350.00	    54.006
  78.200	    433.33	    60.093
  78.220	    283.33	    48.591
  78.240	    375.00	    55.902
  78.260	    350.00	    54.006
  78.280	    258.33	    46.398
  78.300	    400.00	    57.735
  78.320	    341.67	    53.359
  78.340	    416.67	    58.926
  78.360	    275.00	    47.871
  78.380	    308.33	    50.690
  78.400	    383.33	    56.519
  78.420	    266.67	    47.140
  78.440	    316.67	    51.370
  78.460	    333.33	    52.705
  78.480	    316.67	    51.370
  78.500	    316.67	    51.370
  78.520	    383.33	    56.519
  78.540	    400.00	    57.735
  78.560	    375.00	    55.902
  78.580	    316.67	    51.370
  78.600	    483.33	    63.465
  78.620	    400.00	    57.735
  78.640	    416.67	    58.926
  78.660	    400.00	    57.735
  78.680	    316.67	    51.370
  78.700	    291.67	    49.301
  78.720	    266.67	    47.140
  78.740	    341.67	    53.359
  78.760	    341.67	    53.359
  78.780	    358.33	    54.645
  78.800	    400.00	    57.735
  78.820	    366.67	    55.277
  78.840	    391.67	    57.130
  78.860	    366.67	    55.277
  78.880	    375.00	    55.902
  78.900	    383.33	    56.519
  78.920	    400.00	    57.735
  78.940	    350.00	    54.006
  78.960	    333.33	    52.705
  78.980	    308.33	    50.690
  79.000	    316.67	    51.370
  79.020	    425.00	    59.512
  79.040	    391.67	    57.130
  79.060	    316.67	    51.370
  79.080	    333.33	    52.705
  79.100	    333.33	    52.705
  79.120	    316.67	    51.370
  79.140	    408.33	    58.333
  79.160	    308.33	    50.690
  79.180	    425.00	    59.512
  79.200	    358.33	    54.645
  79.220	    333.33	    52.705
  79.240	    391.67	    57.130
  79.260	    266.67	    47.140
  79.280	    258.33	    46.398
  79.300	    275.00	    47.871
  79.320	    425.00	    59.512
  79.340	    416.67	    58.926
  79.360	    308.33	    50.690
  79.380	    325.00	    52.042
  79.400	    266.67	    47.140
  79.420	    391.67	    57.130
  79.440	    216.67	    42.492
  79.460	    316.67	    51.370
  79.480	    425.00	    59.512
  79.500	    316.67	    51.370
  79.520	    375.00	    55.902
  79.540	    358.33	    54.645
  79.560	    483.33	    63.465
  79.580	    391.67	    57.130
  79.600	    358.33	    54.645
  79.620	    383.33	    56.519
  79.640	    408.33	    58.333
  79.660	    258.33	    46.398
  79.680	    375.00	    55.902
  79.700	    391.67	    57.130
  79.720	    308.33	    50.690
  79.740	    291.67	    49.301
  79.760	    458.33	    61.802
  79.780	    325.00	    52.042
  79.800	    250.00	    45.644
  79.820	    400.00	    57.735
  79.840	    441.67	    60.668
  79.860	    325.00	    52.042
  79.880	    333.33	    52.705
  79.900	    350.00	    54.006
  79.920	    358.33	    54.645
  79.940	    341.67	    53.359
  79.960	    300.00	    50.000
  79.980	    358.33	    54.645
  80.000	    433.33	    60.093
  80.020	    316.67	    51.370
  80.040	    350.00	    54.006
  80.060	    366.67	    55.277
  80.080	    441.67	    60.668
  80.100	    450.00	    61.237
  80.120	    333.33	    52.705
  80.140	    433.33	    60.093
  80.160	    358.33	    54.645
  80.180	    333.33	    52.705
  80.200	    300.00	    50.000
  80.220	    341.67	    53.359
  80.240	    433.33	    60.093
  80.260	    300.00	    50.000
  80.280	    375.00	    55.902
  80.300	    358.33	    54.645
  80.320	    358.33	    54.645
  80.340	    375.00	    55.902
  80.360	    341.67	    53.359
  80.380	    333.33	    52.705
  80.400	    416.67	    58.926
  80.420	    341.67	    53.359
  80.440	    341.67	    53.359
  80.460	    366.67	    55.277
  80.480	    433.33	    60.093
  80.500	    458.33	    61.802
  80.520	    375.00	    55.902
  80.540	    200.00	    40.825
  80.560	    400.00	    57.735
  80.580	    325.00	    52.042
  80.600	    416.67	    58.926
  80.620	    316.67	    51.370
  80.640	    333.33	    52.705
  80.660	    408.33	    58.333
  80.680	    375.00	    55.902
  80.700	    275.00	    47.871
  80.720	    375.00	    55.902
  80.740	    383.33	    56.519
  80.760	    275.00	    47.871
  80.780	    416.67	    58.926
  80.800	    375.00	    55.902
  80.820	    333.33	    52.705
  80.840	    300.00	    50.000
  80.860	    366.67	    55.277
  80.880	    316.67	    51.370
  80.900	    325.00	    52.042
  80.920	    316.67	    51.370
  80.940	    391.67	    57.130
  80.960	    266.67	    47.140
  80.980	    416.67	    58.926
  81.000	    333.33	    52.705
  81.020	    375.00	    55.902
  81.040	    333.33	    52.705
  81.060	    358.33	    54.645
  81.080	    350.00	    54.006
  81.100	    341.67	    53.359
  81.120	    391.67	    57.130
  81.140	    350.00	    54.006
  81.160	    433.33	    60.093
  81.180	    283.33	    48.591
  81.200	    358.33	    54.645
  81.220	    308.33	    50.690
  81.240	    266.67	    47.140
  81.260	    300.00	    50.000
  81.280	    416.67	    58.926
  81.300	    358.33	    54.645
  81.320	    350.00	    54.006
  81.340	    366.67	    55.277
  81.360	    425.00	    59.512
  81.380	    400.00	    57.735
  81.400	    366.67	    55.277
  81.420	    283.33	    48.591
  81.440	    350.00	    54.006
  81.460	    308.33	    50.690
  81.480	    400.00	    57.735
  81.500	    350.00	    54.006
  81.520	    316.67	    51.370
  81.540	    308.33	    50.690
  81.560	    316.67	    51.370
  81.580	    300.00	    50.000
  81.600	    400.00	    57.735
  81.620	    258.33	    46.398
  81.640	    308.33	    50.690
  81.660	    375.00	    55.902
  81.680	    366.67	    55.277
  81.700	    325.00	    52.042
  81.720	    408.33	    58.333
  81.740	    416.67	    58.926
  81.760	    375.00	    55.902
  81.780	    291.67	    49.301
  81.800	    291.67	    49.301
  81.820	    408.33	    58.333
  81.840	    408.33	    58.333
  81.860	    341.67	    53.359
  81.880	    350.00	    54.006
  81.900	    383.33	    56.519
  81.920	    383.33	    56.519
  81.940	    358.33	    54.645
  81.960	    358.33	    54.645
  81.980	    325.00	    52.042
  82.000	    283.33	    48.591
  82.020	    258.33	    46.398
  82.040	    350.00	    54.006
  82.060	    358.33	    54.645
  82.080	    266.67	    47.140
  82.100	    233.33	    44.096
  82.120	    325.00	    52.042
  82.140	    383.33	    56.519
  82.160	    325.00	    52.042
  82.180	    308.33	    50.690
  82.200	    325.00	    52.042
  82.220	    400.00	    57.735
  82.240	    400.00	    57.735
  82.260	    316.67	    51.370
  82.280	    341.67	    53.359
  82.300	    325.00	    52.042
  82.320	    358.33	    54.645
  82.340	    366.67	    55.277
  82.360	    341.67	    53.359
  82.380	    300.00	    50.000
  82.400	    400.00	    57.735
  82.420	    416.67	    58.926
  82.440	    341.67	    53.359
  82.460	    325.00	    52.042
  82.480	    241.67	    44.876
  82.500	    325.00	    52.042
  82.520	    325.00	    52.042
  82.540	    416.67	    58.926
  82.560	    341.67	    53.359
  82.580	    250.00	    45.644
  82.600	    250.00	    45.644
  82.620	    416.67	    58.926
  82.640	    308.33	    50.690
  82.660	    358.33	    54.645
  82.680	    283.33	    48.591
  82.700	    341.67	    53.359
  82.720	    308.33	    50.690
  82.740	    383.33	    56.519
  82.760	    341.67	    53.359
  82.780	    408.33	    58.333
  82.800	    383.33	    56.519
  82.820	    383.33	    56.519
  82.840	    350.00	    54.006
  82.860	    383.33	    56.519
  82.880	    408.33	    58.333
  82.900	    391.67	    57.130
  82.920	    383.33	    56.519
  82.940	    375.00	    55.902
  82.960	    375.00	    55.902
  82.980	    333.33	    52.705
  83.000	    533.33	    66.667
  83.020	    475.00	    62.915
  83.040	    325.00	    52.042
  83.060	    350.00	    54.006
  83.080	    366.67	    55.277
  83.100	    391.67	    57.130
  83.120	    366.67	    55.277
  83.140	    308.33	    50.690
  83.160	    341.67	    53.359
  83.180	    400.00	    57.735
  83.200	    316.67	    51.370
  83.220	    366.67	    55.277
  83.240	    391.67	    57.130
  83.260	    275.00	    47.871
  83.280	    416.67	    58.926
  83.300	    308.33	    50.690
  83.320	    291.67	    49.301
  83.340	    491.67	    64.010
  83.360	    375.00	    55.902
  83.380	    308.33	    50.690
  83.400	    333.33	    52.705
  83.420	    450.00	    61.237
  83.440	    366.67	    55.277
  83.460	    366.67	    55.277
  83.480	    308.33	    50.690
  83.500	    333.33	    52.705
  83.520	    341.67	    53.359
  83.540	    383.33	    56.519
  83.560	    433.33	    60.093
  83.580	    300.00	    50.000
  83.600	    350.00	    54.006
  83.620	    433.33	    60.093
  83.640	    283.33	    48.591
  83.660	    333.33	    52.705
  83.680	    383.33	    56.519
  83.700	    258.33	    46.398
  83.720	    358.33	    54.645
  83.740	    466.67	    62.361
  83.760	    325.00	    52.042
  83.780	    466.67	    62.361
  83.800	    291.67	    49.301
  83.820	    333.33	    52.705
  83.840	    383.33	    56.519
  83.860	    383.33	    56.519
  83.880	    383.33	    56.519
  83.900	    325.00	    52.042
  83.920	    283.33	    48.591
  83.940	    358.33	    54.645
  83.960	    283.33	    48.591
  83.980	    341.67	    53.359
  84.000	    250.00	    45.644
  84.020	    425.00	    59.512
  84.040	    416.67	    58.926
  84.060	    358.33	    54.645
  84.080	    375.00	    55.902
  84.100	    316.67	    51.370
  84.120	    341.67	    53.359
  84.140	    375.00	    55.902
  84.160	    275.00	    47.871
  84.180	    266.67	    47.140
  84.200	    358.33	    54.645
  84.220	    433.33	    60.093
  84.240	    308.33	    50.690
  84.260	    333.33	    52.705
  84.280	    266.67	    47.140
  84.300	    358.33	    54.645
  84.320	    425.00	    59.512
  84.340	    383.33	    56.519
  84.360	    416.67	    58.926
  84.380	    366.67	    55.277
  84.400	    266.67	    47.140
  84.420	    408.33	    58.333
  84.440	    325.00	    52.042
  84.460	    341.67	    53.359
  84.480	    400.00	    57.735
  84.500	    325.00	    52.042
  84.520	    458.33	    61.802
  84.540	    358.33	    54.645
  84.560	    366.67	    55.277
  84.580	    300.00	    50.000
  84.600	    350.00	    54.006
  84.620	    358.33	    54.645
  84.640	    333.33	    52.705
  84.660	    300.00	    50.000
  84.680	    341.67	    53.359
  84.700	    358.33	    54.645
  84.720	    325.00	    52.042
  84.740	    333.33	    52.705
  84.760	    308.33	    50.690
  84.780	    300.00	    50.000
  84.800	    391.67	    57.130
  84.820	    400.00	    57.735
  84.840	    333.33	    52.705
  84.860	    250.00	    45.644
  84.880	    291.67	    49.301
  84.900	    391.67	    57.130
  84.920	    341.67	    53.359
  84.940	    383.33	    56.519
  84.960	    408.33	    58.333
  84.980	    350.00	    54.006
  85.000	    291.67	    49.301
  85.020	    325.00	    52.042
  85.040	    350.00	    54.006
  85.060	    333.33	    52.705
  85.080	    358.33	    54.645
  85.100	    325.00	    52.042
  85.120	    275.00	    47.871
  85.140	    308.33	    50.690
  85.160	    391.67	    57.130
  85.180	    341.67	    53.359
  85.200	    400.00	    57.735
  85.220	    266.67	    47.140
  85.240	    333.33	    52.705
  85.260	    450.00	    61.237
  85.280	    408.33	    58.333
  85.300	    291.67	    49.301
  85.320	    391.67	    57.130
  85.340	    408.33	    58.333
  85.360	    325.00	    52.042
  85.380	    383.33	    56.519
  85.400	    241.67	    44.876
  85.420	    408.33	    58.333
  85.440	    425.00	    59.512
  85.460	    308.33	    50.690
  85.480	    341.67	    53.359
  85.500	    291.67	    49.301
  85.520	    325.00	    52.042
  85.540	    350.00	    54.006
  85.560	    316.67	    51.370
  85.580	    341.67	    53.359
  85.600	    358.33	    54.645
  85.620	    291.67	    49.301
  85.640	    316.67	    51.370
  85.660	    325.00	    52.042
  85.680	    333.33	    52.705
  85.700	    383.33	    56.519
  85.720	    400.00	    57.735
  85.740	    275.00	    47.871
  85.760	    250.00	    45.644
  85.780	    366.67	    55.277
  85.800	    258.33	    46.398
  85.820	    291.67	    49.301
  85.840	    333.33	    52.705
  85.860	    325.00	    52.042
  85.880	    375.00	    55.902
  85.900	    358.33	    54.645
  85.920	    341.67	    53.359
  85.940	    308.33	    50.690
  85.960	    350.00	    54.006
  85.980	    433.33	    60.093
  86.000	    391.67	    57.130
  86.020	    308.33	    50.690
  86.040	    375.00	    55.902
  86.060	    275.00	    47.871
  86.080	    400.00	    57.735
  86.100	    475.00	    62.915
  86.120	    433.33	    60.093
  86.140	    358.33	    54.645
  86.160	    225.00	    43.301
  86.180	    441.67	    60.668
  86.200	    341.67	    53.359
  86.220	    275.00	    47.871
  86.240	    350.00	    54.006
  86.260	    333.33	    52.705
  86.280	    300.00	    50.000
  86.300	    300.00	    50.000
  86.320	    333.33	    52.705
  86.340	    416.67	    58.926
  86.360	    366.67	    55.277
  86.380	    391.67	    57.130
  86.400	    383.33	    56.519
  86.420	    391.67	    57.130
  86.440	    333.33	    52.705
  86.460	    258.33	    46.398
  86.480	    400.00	    57.735
  86.500	    283.33	    48.591
  86.520	    416.67	    58.926
  86.540	    316.67	    51.370
  86.560	    325.00	    52.042
  86.580	    450.00	    61.237
  86.600	    308.33	    50.690
  86.620	    266.67	    47.140
  86.640	    366.67	    55.277
  86.660	    333.33	    52.705
  86.680	    316.67	    51.370
  86.700	    383.33	    56.519
  86.720	    308.33	    50.690
  86.740	    366.67	    55.277
  86.760	    350.00	    54.006
  86.780	    350.00	    54.006
  86.800	    308.33	    50.690
  86.820	    283.33	    48.591
  86.840	    341.67	    53.359
  86.860	    308.33	    50.690
  86.880	    308.33	    50.690
  86.900	    391.67	    57.130
  86.920	    400.00	    57.735
  86.940	    325.00	    52.042
  86.960	    333.33	    52.705
  86.980	    291.67	    49.301
  87.000	    275.00	    47.871
  87.020	    283.33	    48.591
  87.040	    266.67	    47.140
  87.060	    341.67	    53.359
  87.080	    266.67	    47.140
  87.100	    266.67	    47.140
  87.120	    291.67	    49.301
  87.140	    258.33	    46.398
  87.160	    300.00	    50.000
  87.180	    333.33	    52.705
  87.200	    241.67	    44.876
  87.220	    275.00	    47.871
  87.240	    350.00	    54.006
  87.260	    400.00	    57.735
  87.280	    400.00	    57.735
  87.300	    466.67	    62.361
  87.320	    416.67	    58.926
  87.340	    300.00	    50.000
  87.360	    450.00	    61.237
  87.380	    333.33	    52.705
  87.400	    291.67	    49.301
  87.420	    350.00	    54.006
  87.440	    250.00	    45.644
  87.460	    300.00	    50.000
  87.480	    316.67	    51.370
  87.500	    308.33	    50.690
  87.520	    250.00	    45.644
  87.540	    341.67	    53.359
  87.560	    275.00	    47.871
  87.580	    325.00	    52.042
  87.600	    308.33	    50.690
  87.620	    358.33	    54.645
  87.640	    250.00	    45.644
  87.660	    266.67	    47.140
  87.680	    300.00	    50.000
  87.700	    350.00	    54.006
  87.720	    358.33	    54.645
  87.740	    300.00	    50.000
  87.760	    341.67	    53.359
  87.780	    308.33	    50.690
  87.800	    325.00	    52.042
  87.820	    383.33	    56.519
  87.840	    250.00	    45.644
  87.860	    283.33	    48.591
  87.880	    275.00	    47.871
  87.900	    400.00	    57.735
  87.920	    333.33	    52.705
  87.940	    358.33	    54.645
  87.960	    291.67	    49.301
  87.980	    350.00	    54.006
  88.000	    350.00	    54.006
  88.020	    341.67	    53.359
  88.040	    433.33	    60.093
  88.060	    333.33	    52.705
  88.080	    416.67	    58.926
  88.100	    316.67	    51.370
  88.120	    283.33	    48.591
  88.140	    266.67	    47.140
  88.160	    308.33	    50.690
  88.180	    433.33	    60.093
  88.200	    283.33	    48.591
  88.220	    366.67	    55.277
  88.240	    266.67	    47.140
  88.260	    266.67	    47.140
  88.280	    375.00	    55.902
  88.300	    358.33	    54.645
  88.320	    300.00	    50.000
  88.340	    400.00	    57.735
  88.360	    316.67	    51.370
  88.380	    283.33	    48.591
  88.400	    358.33	    54.645
  88.420	    366.67	    55.277
  88.440	    458.33	    61.802
  88.460	    425.00	    59.512
  88.480	    266.67	    47.140
  88.500	    275.00	    47.871
  88.520	    341.67	    53.359
  88.540	    266.67	    47.140
  88.560	    258.33	    46.398
  88.580	    300.00	    50.000
  88.600	    350.00	    54.006
  88.620	    391.67	    57.130
  88.640	    300.00	    50.000
  88.660	    325.00	    52.042
  88.680	    383.33	    56.519
  88.700	    358.33	    54.645
  88.720	    333.33	    52.705
  88.740	    391.67	    57.130
  88.760	    425.00	    59.512
  88.780	    316.67	    51.370
  88.800	    283.33	    48.591
  88.820	    300.00	    50.000
  88.840	    250.00	    45.644
  88.860	    300.00	    50.000
  88.880	    366.67	    55.277
  88.900	    308.33	    50.690
  88.920	    416.67	    58.926
  88.940	    391.67	    57.130
  88.960	    408.33	    58.333
  88.980	    391.67	    57.130
  89.000	    400.00	    57.735
  89.020	    391.67	    57.130
  89.040	    350.00	    54.006
  89.060	    275.00	    47.871
  89.080	    358.33	    54.645
  89.100	    316.67	    51.370
  89.120	    441.67	    60.668
  89.140	    350.00	    54.006
  89.160	    333.33	    52.705
  89.180	    400.00	    57.735
  89.200	    375.00	    55.902
  89.220	    375.00	    55.902
  89.240	    333.33	    52.705
  89.260	    308.33	    50.690
  89.280	    375.00	    55.902
  89.300	    400.00	    57.735
  89.320	    441.67	    60.668
  89.340	    433.33	    60.093
  89.360	    541.67	    67.185
  89.380	    416.67	    58.926
  89.400	    266.67	    47.140
  89.420	    416.67	    58.926
  89.440	    291.67	    49.301
  89.460	    483.33	    63.465
  89.480	    466.67	    62.361
  89.500	    375.00	    55.902
  89.520	    375.00	    55.902
  89.540	    408.33	    58.333
  89.560	    350.00	    54.006
  89.580	    425.00	    59.512
  89.600	    391.67	    57.130
  89.620	    333.33	    52.705
  89.640	    483.33	    63.465
  89.660	    291.67	    49.301
  89.680	    316.67	    51.370
  89.700	    416.67	    58.926
  89.720	    391.67	    57.130
  89.740	    383.33	    56.519
  89.760	    391.67	    57.130
  89.780	    475.00	    62.915
  89.800	    391.67	    57.130
  89.820	    450.00	    61.237
  89.840	    466.67	    62.361
  89.860	    375.00	    55.902
  89.880	    425.00	    59.512
  89.900	    416.67	    58.926
  89.920	    416.67	    58.926
  89.940	    375.00	    55.902
  89.960	    408.33	    58.333
  89.980	    400.00	    57.735
  90.000	    341.67	    53.359
  90.020	    450.00	    61.237
  90.040	    383.33	    56.519
  90.060	    425.00	    59.512
  90.080	    491.67	    64.010
  90.100	    483.33	    63.465
  90.120	    400.00	    57.735
  90.140	    483.33	    63.465
  90.160	    408.33	    58.333
  90.180	    391.67	    57.130
  90.200	    458.33	    61.802
  90.220	    375.00	    55.902
  90.240	    333.33	    52.705
  90.260	    400.00	    57.735
  90.280	    475.00	    62.915
  90.300	    433.33	    60.093
  90.320	    375.00	    55.902
  90.340	    383.33	    56.519
  90.360	    416.67	    58.926
  90.380	    375.00	    55.902
  90.400	    441.67	    60.668
  90.420	    458.33	    61.802
  90.440	    458.33	    61.802
  90.460	    450.00	    61.237
  90.480	    375.00	    55.902
  90.500	    483.33	    63.465
  90.520	    400.00	    57.735
  90.540	    408.33	    58.333
  90.560	    308.33	    50.690
  90.580	    358.33	    54.645
  90.600	    450.00	    61.237
  90.620	    391.67	    57.130
  90.640	    441.67	    60.668
  90.660	    458.33	    61.802
  90.680	    433.33	    60.093
  90.700	    400.00	    57.735
  90.720	    358.33	    54.645
  90.740	    341.67	    53.359
  90.760	    416.67	    58.926
  90.780	    366.67	    55.277
  90.800	    391.67	    57.130
  90.820	    483.33	    63.465
  90.840	    450.00	    61.237
  90.860	    408.33	    58.333
  90.880	    483.33	    63.465
  90.900	    383.33	    56.519
  90.920	    400.00	    57.735
  90.940	    350.00	    54.006
  90.960	    383.33	    56.519
  90.980	    400.00	    57.735
  91.000	    475.00	    62.915
  91.020	    391.67	    57.130
  91.040	    383.33	    56.519
  91.060	    441.67	    60.668
  91.080	    458.33	    61.802
  91.100	    391.67	    57.130
  91.120	    416.67	    58.926
  91.140	    391.67	    57.130
  91.160	    375.00	    55.902
  91.180	    400.00	    57.735
  91.200	    450.00	    61.237
  91.220	    433.33	    60.093
  91.240	    475.00	    62.915
  91.260	    433.33	    60.093
  91.280	    433.33	    60.093
  91.300	    341.67	    53.359
  91.320	    375.00	    55.902
  91.340	    491.67	    64.010
  91.360	    358.33	    54.645
  91.380	    416.67	    58.926
  91.400	    358.33	    54.645
  91.420	    450.00	    61.237
  91.440	    375.00	    55.902
  91.460	    350.00	    54.006
  91.480	    275.00	    47.871
  91.500	    491.67	    64.010
  91.520	    416.67	    58.926
  91.540	    425.00	    59.512
  91.560	    458.33	    61.802
  91.580	    516.67	    65.617
  91.600	    491.67	    64.010
  91.620	    483.33	    63.465
  91.640	    425.00	    59.512
  91.660	    375.00	    55.902
  91.680	    433.33	    60.093
  91.700	    300.00	    50.000
  91.720	    366.67	    55.277
  91.740	    408.33	    58.333
  91.760	    383.33	    56.519
  91.780	    416.67	    58.926
  91.800	    400.00	    57.735
  91.820	    450.00	    61.237
  91.840	    450.00	    61.237
  91.860	    508.33	    65.085
  91.880	    450.00	    61.237
  91.900	    450.00	    61.237
  91.920	    316.67	    51.370
  91.940	    525.00	    66.144
  91.960	    408.33	    58.333
  91.980	    308.33	    50.690
  92.000	    466.67	    62.361
  92.020	    425.00	    59.512
  92.040	    383.33	    56.519
  92.060	    366.67	    55.277
  92.080	    275.00	    47.871
  92.100	    400.00	    57.735
  92.120	    458.33	    61.802
  92.140	    383.33	    56.519
  92.160	    433.33	    60.093
  92.180	    525.00	    66.144
  92.200	    500.00	    64.550
  92.220	    441.67	    60.668
  92.240	    375.00	    55.902
  92.260	    558.33	    68.211
  92.280	    508.33	    65.085
  92.300	    516.67	    65.617
  92.320	    525.00	    66.144
  92.340	    450.00	    61.237
  92.360	    341.67	    53.359
  92.380	    516.67	    65.617
  92.400	    466.67	    62.361
  92.420	    408.33	    58.333
  92.440	    525.00	    66.144
  92.460	    508.33	    65.085
  92.480	    508.33	    65.085
  92.500	    416.67	    58.926
  92.520	    475.00	    62.915
  92.540	    575.00	    69.222
  92.560	    491.67	    64.010
  92.580	    566.67	    68.718
  92.600	    550.00	    67.700
  92.620	    600.00	    70.711
  92.640	    783.33	    80.795
  92.660	    716.67	    77.280
  92.680	    733.33	    78.174
  92.700	    700.00	    76.376
  92.720	    791.67	    81.223
  92.740	    900.00	    86.603
  92.760	    891.67	    86.201
  92.780	    833.33	    83.333
  92.800	    941.67	    88.585
  92.820	   1225.00	   101.036
  92.840	   1216.67	   100.692
  92.860	   1225.00	   101.036
  92.880	   1233.33	   101.379
  92.900	   1508.33	   112.114
  92.920	   1750.00	   120.761
  92.940	   1566.67	   114.261
  92.960	   1558.33	   113.957
  92.980	   1616.67	   116.070
  93.000	   1716.67	   119.606
  93.020	   1516.67	   112.423
  93.040	   1633.33	   116.667
  93.060	   1616.67	   116.070
  93.080	   1325.00	   105.079
  93.100	   1416.67	   108.653
  93.120	   1358.33	   106.393
  93.140	   1450.00	   109.924
  93.160	   1308.33	   104.416
  93.180	   1241.67	   101.721
  93.200	   1416.67	   108.653
  93.220	   1383.33	   107.367
  93.240	   1100.00	    95.743
  93.260	   1233.33	   101.379
  93.280	   1175.00	    98.953
  93.300	   1258.33	   102.402
  93.320	   1075.00	    94.648
  93.340	    975.00	    90.139
  93.360	   1008.33	    91.667
  93.380	    875.00	    85.391
  93.400	    975.00	    90.139
  93.420	    916.67	    87.401
  93.440	    808.33	    82.074
  93.460	    616.67	    71.686
  93.480	    733.33	    78.174
  93.500	    733.33	    78.174
  93.520	    766.67	    79.931
  93.540	    558.33	    68.211
  93.560	    550.00	    67.700
  93.580	    633.33	    72.648
  93.600	    541.67	    67.185
  93.620	    625.00	    72.169
  93.640	    683.33	    75.462
  93.660	    450.00	    61.237
  93.680	    608.33	    71.200
  93.700	    425.00	    59.512
  93.720	    500.00	    64.550
  93.740	    500.00	    64.550
  93.760	    433.33	    60.093
  93.780	    516.67	    65.617
  93.800	    508.33	    65.085
  93.820	    383.33	    56.519
  93.840	    441.67	    60.668
  93.860	    450.00	    61.237
  93.880	    416.67	    58.926
  93.900	    391.67	    57.130
  93.920	    383.33	    56.519
  93.940	    508.33	    65.085
  93.960	    391.67	    57.130
  93.980	    283.33	    48.591
  94.000	    433.33	    60.093
  94.020	    533.33	    66.667
  94.040	    391.67	    57.130
  94.060	    616.67	    71.686
  94.080	    516.67	    65.617
  94.100	    466.67	    62.361
  94.120	    516.67	    65.617
  94.140	    400.00	    57.735
  94.160	    291.67	    49.301
  94.180	    433.33	    60.093
  94.200	    383.33	    56.519
  94.220	    350.00	    54.006
  94.240	    383.33	    56.519
  94.260	    458.33	    61.802
  94.280	    375.00	    55.902
  94.300	    458.33	    61.802
  94.320	    450.00	    61.237
  94.340	    383.33	    56.519
  94.360	    391.67	    57.130
  94.380	    358.33	    54.645
  94.400	    433.33	    60.093
  94.420	    308.33	    50.690
  94.440	    375.00	    55.902
  94.460	    308.33	    50.690
  94.480	    400.00	    57.735
  94.500	    441.67	    60.668
  94.520	    408.33	    58.333
  94.540	    375.00	    55.902
  94.560	    358.33	    54.645
  94.580	    441.67	    60.668
  94.600	    341.67	    53.359
  94.620	    425.00	    59.512
  94.640	    475.00	    62.915
  94.660	    400.00	    57.735
  94.680	    325.00	    52.042
  94.700	    241.67	    44.876
  94.720	    408.33	    58.333
  94.740	    541.67	    67.185
  94.760	    408.33	    58.333
  94.780	    400.00	    57.735
  94.800	    391.67	    57.130
  94.820	    433.33	    60.093
  94.840	    391.67	    57.130
  94.860	    466.67	    62.361
  94.880	    400.00	    57.735
  94.900	    500.00	    64.550
  94.920	    375.00	    55.902
  94.940	    316.67	    51.370
  94.960	    375.00	    55.902
  94.980	    383.33	    56.519
  95.000	    466.67	    62.361
  95.020	    433.33	    60.093
  95.040	    358.33	    54.645
  95.060	    525.00	    66.144
  95.080	    375.00	    55.902
  95.100	    408.33	    58.333
  95.120	    400.00	    57.735
  95.140	    516.67	    65.617
  95.160	    400.00	    57.735
  95.180	    391.67	    57.130
  95.200	    458.33	    61.802
  95.220	    391.67	    57.130
  95.240	    291.67	    49.301
  95.260	    400.00	    57.735
  95.280	    300.00	    50.000
  95.300	    391.67	    57.130
  95.320	    466.67	    62.361
  95.340	    491.67	    64.010
  95.360	    333.33	    52.705
  95.380	    433.33	    60.093
  95.400	    475.00	    62.915
  95.420	    358.33	    54.645
  95.440	    441.67	    60.668
  95.460	    383.33	    56.519
  95.480	    458.33	    61.802
  95.500	    383.33	    56.519
  95.520	    425.00	    59.512
  95.540	    375.00	    55.902
  95.560	    433.33	    60.093
  95.580	    391.67	    57.130
  95.600	    391.67	    57.130
  95.620	    375.00	    55.902
  95.640	    383.33	    56.519
  95.660	    375.00	    55.902
  95.680	    325.00	    52.042
  95.700	    441.67	    60.668
  95.720	    466.67	    62.361
  95.740	    458.33	    61.802
  95.760	    483.33	    63.465
  95.780	    425.00	    59.512
  95.800	    475.00	    62.915
  95.820	    391.67	    57.130
  95.840	    483.33	    63.465
  95.860	    408.33	    58.333
  95.880	    491.67	    64.010
  95.900	    375.00	    55.902
  95.920	    375.00	    55.902
  95.940	    383.33	    56.519
  95.960	    375.00	    55.902
  95.980	    366.67	    55.277
  96.000	    366.67	    55.277
  96.020	    391.67	    57.130
  96.040	    441.67	    60.668
  96.060	    383.33	    56.519
  96.080	    375.00	    55.902
  96.100	    358.33	    54.645
  96.120	    266.67	    47.140
  96.140	    333.33	    52.705
  96.160	    300.00	    50.000
  96.180	    358.33	    54.645
  96.200	    358.33	    54.645
  96.220	    433.33	    60.093
  96.240	    400.00	    57.735
  96.260	    408.33	    58.333
  96.280	    441.67	    60.668
  96.300	    458.33	    61.802
  96.320	    375.00	    55.902
  96.340	    400.00	    57.735
  96.360	    350.00	    54.006
  96.380	    483.33	    63.465
  96.400	    358.33	    54.645
  96.420	    416.67	    58.926
  96.440	    450.00	    61.237
  96.460	    475.00	    62.915
  96.480	    333.33	    52.705
  96.500	    425.00	    59.512
  96.520	    400.00	    57.735
  96.540	    475.00	    62.915
  96.560	    508.33	    65.085
  96.580	    433.33	    60.093
  96.600	    358.33	    54.645
  96.620	    458.33	    61.802
  96.640	    333.33	    52.705
  96.660	    425.00	    59.512
  96.680	    466.67	    62.361
  96.700	    350.00	    54.006
  96.720	    400.00	    57.735
  96.740	    325.00	    52.042
  96.760	    400.00	    57.735
  96.780	    441.67	    60.668
  96.800	    408.33	    58.333
  96.820	    508.33	    65.085
  96.840	    416.67	    58.926
  96.860	    391.67	    57.130
  96.880	    450.00	    61.237
  96.900	    358.33	    54.645
  96.920	    458.33	    61.802
  96.940	    466.67	    62.361
  96.960	    383.33	    56.519
  96.980	    333.33	    52.705
  97.000	    525.00	    66.144
  97.020	    566.67	    68.718
  97.040	    425.00	    59.512
  97.060	    458.33	    61.802
  97.080	    391.67	    57.130
  97.100	    433.33	    60.093
  97.120	    433.33	    60.093
  97.140	    425.00	    59.512
  97.160	    425.00	    59.512
  97.180	    366.67	    55.277
  97.200	    366.67	    55.277
  97.220	    408.33	    58.333
  97.240	    391.67	    57.130
  97.260	    383.33	    56.519
  97.280	    425.00	    59.512
  97.300	    341.67	    53.359
  97.320	    425.00	    59.512
  97.340	    425.00	    59.512
  97.360	    516.67	    65.617
  97.380	    375.00	    55.902
  97.400	    400.00	    57.735
  97.420	    400.00	    57.735
  97.440	    383.33	    56.519
  97.460	    350.00	    54.006
  97.480	    425.00	    59.512
  97.500	    466.67	    62.361
  97.520	    333.33	    52.705
  97.540	    450.00	    61.237
  97.560	    391.67	    57.130
  97.580	    433.33	    60.093
  97.600	    391.67	    57.130
  97.620	    383.33	    56.519
  97.640	    383.33	    56.519
  97.660	    350.00	    54.006
  97.680	    383.33	    56.519
  97.700	    391.67	    57.130
  97.720	    391.67	    57.130
  97.740	    383.33	    56.519
  97.760	    383.33	    56.519
  97.780	    391.67	    57.130
  97.800	    400.00	    57.735
  97.820	    333.33	    52.705
  97.840	    541.67	    67.185
  97.860	    333.33	    52.705
  97.880	    341.67	    53.359
  97.900	    325.00	    52.042
  97.920	    366.67	    55.277
  97.940	    383.33	    56.519
  97.960	    475.00	    62.915
  97.980	    416.67	    58.926
  98.000	    500.00	    64.550
  98.020	    466.67	    62.361
  98.040	    508.33	    65.085
  98.060	    416.67	    58.926
  98.080	    450.00	    61.237
  98.100	    383.33	    56.519
  98.120	    400.00	    57.735
  98.140	    500.00	    64.550
  98.160	    450.00	    61.237
  98.180	    450.00	    61.237
  98.200	    425.00	    59.512
  98.220	    591.67	    70.218
  98.240	    341.67	    53.359
  98.260	    683.33	    75.462
  98.280	    433.33	    60.093
  98.300	    600.00	    70.711
  98.320	    641.67	    73.125
  98.340	    558.33	    68.211
  98.360	    641.67	    73.125
  98.380	    816.67	    82.496
  98.400	    800.00	    81.650
  98.420	    733.33	    78.174
  98.440	    700.00	    76.376
  98.460	    816.67	    82.496
  98.480	    825.00	    82.916
  98.500	    883.33	    85.797
  98.520	    733.33	    78.174
  98.540	    866.67	    84.984
  98.560	    800.00	    81.650
  98.580	    758.33	    79.495
  98.600	    716.67	    77.280
  98.620	    641.67	    73.125
  98.640	    633.33	    72.648
  98.660	    608.33	    71.200
  98.680	    641.67	    73.125
  98.700	    758.33	    79.495
  98.720	    616.67	    71.686
  98.740	    733.33	    78.174
  98.760	    566.67	    68.718
  98.780	    708.33	    76.830
  98.800	    666.67	    74.536
  98.820	    741.67	    78.617
  98.840	    641.67	    73.125
  98.860	    575.00	    69.222
  98.880	    600.00	    70.711
  98.900	    500.00	    64.550
  98.920	    558.33	    68.211
  98.940	    391.67	    57.130
  98.960	    483.33	    63.465
  98.980	    433.33	    60.093
  99.000	    508.33	    65.085
  99.020	    533.33	    66.667
  99.040	    558.33	    68.211
  99.060	    475.00	    62.915
  99.080	    541.67	    67.185
  99.100	    408.33	    58.333
  99.120	    441.67	    60.668
  99.140	    375.00	    55.902
  99.160	    450.00	    61.237
  99.180	    358.33	    54.645
  99.200	    500.00	    64.550
  99.220	    291.67	    49.301
  99.240	    466.67	    62.361
  99.260	    450.00	    61.237
  99.280	    425.00	    59.512
  99.300	    333.33	    52.705
  99.320	    416.67	    58.926
  99.340	    408.33	    58.333
  99.360	    450.00	    61.237
  99.380	    358.33	    54.645
  99.400	    433.33	    60.093
  99.420	    341.67	    53.359
  99.440	    350.00	    54.006
  99.460	    408.33	    58.333
  99.480	    358.33	    54.645
  99.500	    358.33	    54.645
  99.520	    383.33	    56.519
  99.540	    366.67	    55.277
  99.560	    325.00	    52.042
  99.580	    383.33	    56.519
  99.600	    466.67	    62.361
  99.620	    458.33	    61.802
  99.640	    366.67	    55.277
  99.660	    333.33	    52.705
  99.680	    441.67	    60.668
  99.700	    483.33	    63.465
  99.720	    375.00	    55.902
  99.740	    375.00	    55.902
  99.760	    400.00	    57.735
  99.780	    433.33	    60.093
  99.800	    433.33	    60.093
  99.820	    391.67	    57.130
  99.840	    400.00	    57.735
  99.860	    383.33	    56.519
  99.880	    433.33	    60.093
  99.900	    258.33	    46.398
  99.920	    425.00	    59.512
  99.940	    491.67	    64.010
  99.960	    325.00	    52.042
  99.980	    366.67	    55.277
 100.000	    333.33	    52.705
