         ID: 

    Comment: 

Scan Type: Normal
Start Angle: 5 deg.
Stop Angle: 100 deg.
Num Points: 4751
Step Size: 0.02 deg.
Datafile Res: 1600 
Scan Rate: 10.000000
Scan Mode: Continuous
Wavelength: 1.540562

Diffractometer Optics:
		Detector:
			 Type: Fixed Slits
			 X2 Configuration: No
		Tube: 
			 Type: Fixed Slits
			 X2 Configuration: No


Axis[0]
	 Selected   : no 
	 Iterative  : no 
	 Start Angle: 0.000000 
	 Stop Angle : 0.000000 
	 Step Size  : 0.000000 
	 Oscillating: no 

Axis[1]
	 Selected   : no 
	 Iterative  : no 
	 Start Angle: 0.000000 
	 Stop Angle : 0.000000 
	 Step Size  : 0.000000 
	 Oscillating: no 

Axis[2]
	 Selected   : no 
	 Iterative  : no 
	 Start Angle: 0.000000 
	 Stop Angle : 0.000000 
	 Step Size  : 0.000000 
	 Oscillating: no 

Axis[3]
	 Selected   : no 
	 Iterative  : no 
	 Start Angle: 0.000000 
	 Stop Angle : 0.000000 
	 Step Size  : 0.000000 
	 Oscillating: no 

Axis[4]
	 Selected   : no 
	 Iterative  : no 
	 Start Angle: 0.000000 
	 Stop Angle : 0.000000 
	 Step Size  : 0.000000 
	 Oscillating: no 

Axis[5]
	 Selected   : no 
	 Iterative  : no 
	 Start Angle: 0.000000 
	 Stop Angle : 0.000000 
	 Step Size  : 0.000000 
	 Oscillating: no 

Axis[6]
	 Selected   : no 
	 Iterative  : no 
	 Start Angle: 0.000000 
	 Stop Angle : 0.000000 
	 Step Size  : 0.000000 
	 Oscillating: no 

Axis[7]
	 Selected   : no 
	 Iterative  : no 
	 Start Angle: 0.000000 
	 Stop Angle : 0.000000 
	 Step Size  : 0.000000 
	 Oscillating: no 

Axis[8]
	 Selected   : no 
	 Iterative  : no 
	 Start Angle: 0.000000 
	 Stop Angle : 0.000000 
	 Step Size  : 0.000000 
	 Oscillating: no 

Axis[9]
	 Selected   : no 
	 Iterative  : no 
	 Start Angle: 0.000000 
	 Stop Angle : 0.000000 
	 Step Size  : 0.000000 
	 Oscillating: no 




	   Deg.      CPS  	    ESD   

Range 0
   5.000	    200.00	    40.825
   5.020	    225.00	    43.301
   5.040	    275.00	    47.871
   5.060	    358.33	    54.645
   5.080	    283.33	    48.591
   5.100	    225.00	    43.301
   5.120	    233.33	    44.096
   5.140	    275.00	    47.871
   5.160	    375.00	    55.902
   5.180	    191.67	    39.965
   5.200	    250.00	    45.644
   5.220	    208.33	    41.667
   5.240	    266.67	    47.140
   5.260	    241.67	    44.876
   5.280	    208.33	    41.667
   5.300	    241.67	    44.876
   5.320	    208.33	    41.667
   5.340	    275.00	    47.871
   5.360	    225.00	    43.301
   5.380	    300.00	    50.000
   5.400	    266.67	    47.140
   5.420	    275.00	    47.871
   5.440	    216.67	    42.492
   5.460	    250.00	    45.644
   5.480	    283.33	    48.591
   5.500	    241.67	    44.876
   5.520	    258.33	    46.398
   5.540	    233.33	    44.096
   5.560	    216.67	    42.492
   5.580	    191.67	    39.965
   5.600	    300.00	    50.000
   5.620	    183.33	    39.087
   5.640	    258.33	    46.398
   5.660	    233.33	    44.096
   5.680	    158.33	    36.324
   5.700	    150.00	    35.355
   5.720	    241.67	    44.876
   5.740	    208.33	    41.667
   5.760	    166.67	    37.268
   5.780	    250.00	    45.644
   5.800	    216.67	    42.492
   5.820	    225.00	    43.301
   5.840	    216.67	    42.492
   5.860	    283.33	    48.591
   5.880	    216.67	    42.492
   5.900	    266.67	    47.140
   5.920	    191.67	    39.965
   5.940	    175.00	    38.188
   5.960	    275.00	    47.871
   5.980	    241.67	    44.876
   6.000	    283.33	    48.591
   6.020	    200.00	    40.825
   6.040	    175.00	    38.188
   6.060	    150.00	    35.355
   6.080	    233.33	    44.096
   6.100	    175.00	    38.188
   6.120	    200.00	    40.825
   6.140	    208.33	    41.667
   6.160	    150.00	    35.355
   6.180	    250.00	    45.644
   6.200	    175.00	    38.188
   6.220	    125.00	    32.275
   6.240	    266.67	    47.140
   6.260	    200.00	    40.825
   6.280	    175.00	    38.188
   6.300	    175.00	    38.188
   6.320	    166.67	    37.268
   6.340	    175.00	    38.188
   6.360	    275.00	    47.871
   6.380	    200.00	    40.825
   6.400	    233.33	    44.096
   6.420	    183.33	    39.087
   6.440	    125.00	    32.275
   6.460	    166.67	    37.268
   6.480	    208.33	    41.667
   6.500	    208.33	    41.667
   6.520	    166.67	    37.268
   6.540	    191.67	    39.965
   6.560	    241.67	    44.876
   6.580	    233.33	    44.096
   6.600	    116.67	    31.180
   6.620	    158.33	    36.324
   6.640	    183.33	    39.087
   6.660	    191.67	    39.965
   6.680	    158.33	    36.324
   6.700	    225.00	    43.301
   6.720	    116.67	    31.180
   6.740	    208.33	    41.667
   6.760	    141.67	    34.359
   6.780	    191.67	    39.965
   6.800	    241.67	    44.876
   6.820	    233.33	    44.096
   6.840	    125.00	    32.275
   6.860	    191.67	    39.965
   6.880	    200.00	    40.825
   6.900	    158.33	    36.324
   6.920	    233.33	    44.096
   6.940	    216.67	    42.492
   6.960	    233.33	    44.096
   6.980	    175.00	    38.188
   7.000	    225.00	    43.301
   7.020	    183.33	    39.087
   7.040	     75.00	    25.000
   7.060	    133.33	    33.333
   7.080	    183.33	    39.087
   7.100	    191.67	    39.965
   7.120	    191.67	    39.965
   7.140	    200.00	    40.825
   7.160	    175.00	    38.188
   7.180	    166.67	    37.268
   7.200	    133.33	    33.333
   7.220	    108.33	    30.046
   7.240	    158.33	    36.324
   7.260	    141.67	    34.359
   7.280	    116.67	    31.180
   7.300	    191.67	    39.965
   7.320	    141.67	    34.359
   7.340	    150.00	    35.355
   7.360	    183.33	    39.087
   7.380	    225.00	    43.301
   7.400	    150.00	    35.355
   7.420	    191.67	    39.965
   7.440	    116.67	    31.180
   7.460	    158.33	    36.324
   7.480	    141.67	    34.359
   7.500	    183.33	    39.087
   7.520	    191.67	    39.965
   7.540	    175.00	    38.188
   7.560	    158.33	    36.324
   7.580	    150.00	    35.355
   7.600	    133.33	    33.333
   7.620	    133.33	    33.333
   7.640	    125.00	    32.275
   7.660	    216.67	    42.492
   7.680	    175.00	    38.188
   7.700	    166.67	    37.268
   7.720	    175.00	    38.188
   7.740	    133.33	    33.333
   7.760	    116.67	    31.180
   7.780	    191.67	    39.965
   7.800	    175.00	    38.188
   7.820	    225.00	    43.301
   7.840	    100.00	    28.868
   7.860	    191.67	    39.965
   7.880	    175.00	    38.188
   7.900	    158.33	    36.324
   7.920	    183.33	    39.087
   7.940	    150.00	    35.355
   7.960	    116.67	    31.180
   7.980	    200.00	    40.825
   8.000	    133.33	    33.333
   8.020	    150.00	    35.355
   8.040	    183.33	    39.087
   8.060	    166.67	    37.268
   8.080	    175.00	    38.188
   8.100	    150.00	    35.355
   8.120	    175.00	    38.188
   8.140	    208.33	    41.667
   8.160	    191.67	    39.965
   8.180	    150.00	    35.355
   8.200	    175.00	    38.188
   8.220	    208.33	    41.667
   8.240	    141.67	    34.359
   8.260	    100.00	    28.868
   8.280	    100.00	    28.868
   8.300	    158.33	    36.324
   8.320	    150.00	    35.355
   8.340	    150.00	    35.355
   8.360	    141.67	    34.359
   8.380	    175.00	    38.188
   8.400	    125.00	    32.275
   8.420	    166.67	    37.268
   8.440	    125.00	    32.275
   8.460	    216.67	    42.492
   8.480	     75.00	    25.000
   8.500	    183.33	    39.087
   8.520	    108.33	    30.046
   8.540	    225.00	    43.301
   8.560	    175.00	    38.188
   8.580	    166.67	    37.268
   8.600	    158.33	    36.324
   8.620	    108.33	    30.046
   8.640	    233.33	    44.096
   8.660	    166.67	    37.268
   8.680	    166.67	    37.268
   8.700	    116.67	    31.180
   8.720	    116.67	    31.180
   8.740	    216.67	    42.492
   8.760	    158.33	    36.324
   8.780	    183.33	    39.087
   8.800	    191.67	    39.965
   8.820	    166.67	    37.268
   8.840	    116.67	    31.180
   8.860	    108.33	    30.046
   8.880	    225.00	    43.301
   8.900	    216.67	    42.492
   8.920	    166.67	    37.268
   8.940	    191.67	    39.965
   8.960	    208.33	    41.667
   8.980	    216.67	    42.492
   9.000	    175.00	    38.188
   9.020	    166.67	    37.268
   9.040	    166.67	    37.268
   9.060	    183.33	    39.087
   9.080	    183.33	    39.087
   9.100	    125.00	    32.275
   9.120	    141.67	    34.359
   9.140	    191.67	    39.965
   9.160	    166.67	    37.268
   9.180	    200.00	    40.825
   9.200	    108.33	    30.046
   9.220	    158.33	    36.324
   9.240	    116.67	    31.180
   9.260	    241.67	    44.876
   9.280	    158.33	    36.324
   9.300	    150.00	    35.355
   9.320	    150.00	    35.355
   9.340	    116.67	    31.180
   9.360	    166.67	    37.268
   9.380	    200.00	    40.825
   9.400	    133.33	    33.333
   9.420	    158.33	    36.324
   9.440	    191.67	    39.965
   9.460	    150.00	    35.355
   9.480	    183.33	    39.087
   9.500	    108.33	    30.046
   9.520	    108.33	    30.046
   9.540	    141.67	    34.359
   9.560	    208.33	    41.667
   9.580	    175.00	    38.188
   9.600	    166.67	    37.268
   9.620	    116.67	    31.180
   9.640	    208.33	    41.667
   9.660	    133.33	    33.333
   9.680	    125.00	    32.275
   9.700	    141.67	    34.359
   9.720	    166.67	    37.268
   9.740	    191.67	    39.965
   9.760	     83.33	    26.352
   9.780	     83.33	    26.352
   9.800	    216.67	    42.492
   9.820	    141.67	    34.359
   9.840	    175.00	    38.188
   9.860	    141.67	    34.359
   9.880	    133.33	    33.333
   9.900	    150.00	    35.355
   9.920	    158.33	    36.324
   9.940	    116.67	    31.180
   9.960	    158.33	    36.324
   9.980	    175.00	    38.188
  10.000	    141.67	    34.359
  10.020	    141.67	    34.359
  10.040	    141.67	    34.359
  10.060	    141.67	    34.359
  10.080	    158.33	    36.324
  10.100	    183.33	    39.087
  10.120	    191.67	    39.965
  10.140	    266.67	    47.140
  10.160	    116.67	    31.180
  10.180	    208.33	    41.667
  10.200	    141.67	    34.359
  10.220	    150.00	    35.355
  10.240	    141.67	    34.359
  10.260	    175.00	    38.188
  10.280	    175.00	    38.188
  10.300	    175.00	    38.188
  10.320	    225.00	    43.301
  10.340	    108.33	    30.046
  10.360	    158.33	    36.324
  10.380	    216.67	    42.492
  10.400	    150.00	    35.355
  10.420	    141.67	    34.359
  10.440	    141.67	    34.359
  10.460	    175.00	    38.188
  10.480	    166.67	    37.268
  10.500	    141.67	    34.359
  10.520	    158.33	    36.324
  10.540	    158.33	    36.324
  10.560	    125.00	    32.275
  10.580	    108.33	    30.046
  10.600	    125.00	    32.275
  10.620	    166.67	    37.268
  10.640	    150.00	    35.355
  10.660	    200.00	    40.825
  10.680	    158.33	    36.324
  10.700	    216.67	    42.492
  10.720	    183.33	    39.087
  10.740	    216.67	    42.492
  10.760	    200.00	    40.825
  10.780	    175.00	    38.188
  10.800	    125.00	    32.275
  10.820	    150.00	    35.355
  10.840	    183.33	    39.087
  10.860	    175.00	    38.188
  10.880	    225.00	    43.301
  10.900	    125.00	    32.275
  10.920	    175.00	    38.188
  10.940	    116.67	    31.180
  10.960	    141.67	    34.359
  10.980	    183.33	    39.087
  11.000	    175.00	    38.188
  11.020	    175.00	    38.188
  11.040	    133.33	    33.333
  11.060	     83.33	    26.352
  11.080	    133.33	    33.333
  11.100	    183.33	    39.087
  11.120	    191.67	    39.965
  11.140	    141.67	    34.359
  11.160	    225.00	    43.301
  11.180	    183.33	    39.087
  11.200	    150.00	    35.355
  11.220	    183.33	    39.087
  11.240	    125.00	    32.275
  11.260	    133.33	    33.333
  11.280	    175.00	    38.188
  11.300	    125.00	    32.275
  11.320	    141.67	    34.359
  11.340	    158.33	    36.324
  11.360	    133.33	    33.333
  11.380	    133.33	    33.333
  11.400	    158.33	    36.324
  11.420	    133.33	    33.333
  11.440	    150.00	    35.355
  11.460	    158.33	    36.324
  11.480	     91.67	    27.639
  11.500	    125.00	    32.275
  11.520	    208.33	    41.667
  11.540	    133.33	    33.333
  11.560	    158.33	    36.324
  11.580	    175.00	    38.188
  11.600	    283.33	    48.591
  11.620	    133.33	    33.333
  11.640	    166.67	    37.268
  11.660	    150.00	    35.355
  11.680	    175.00	    38.188
  11.700	    141.67	    34.359
  11.720	    125.00	    32.275
  11.740	    125.00	    32.275
  11.760	    191.67	    39.965
  11.780	    191.67	    39.965
  11.800	    175.00	    38.188
  11.820	    233.33	    44.096
  11.840	    133.33	    33.333
  11.860	    150.00	    35.355
  11.880	    175.00	    38.188
  11.900	    166.67	    37.268
  11.920	    100.00	    28.868
  11.940	    258.33	    46.398
  11.960	    150.00	    35.355
  11.980	    125.00	    32.275
  12.000	    125.00	    32.275
  12.020	    183.33	    39.087
  12.040	    166.67	    37.268
  12.060	    166.67	    37.268
  12.080	    225.00	    43.301
  12.100	    150.00	    35.355
  12.120	    233.33	    44.096
  12.140	    133.33	    33.333
  12.160	     75.00	    25.000
  12.180	    166.67	    37.268
  12.200	    158.33	    36.324
  12.220	    175.00	    38.188
  12.240	     91.67	    27.639
  12.260	    158.33	    36.324
  12.280	    150.00	    35.355
  12.300	    200.00	    40.825
  12.320	     75.00	    25.000
  12.340	    216.67	    42.492
  12.360	    141.67	    34.359
  12.380	    100.00	    28.868
  12.400	    208.33	    41.667
  12.420	    116.67	    31.180
  12.440	    125.00	    32.275
  12.460	    158.33	    36.324
  12.480	    175.00	    38.188
  12.500	    158.33	    36.324
  12.520	    183.33	    39.087
  12.540	    175.00	    38.188
  12.560	    141.67	    34.359
  12.580	    158.33	    36.324
  12.600	    116.67	    31.180
  12.620	    175.00	    38.188
  12.640	    141.67	    34.359
  12.660	    158.33	    36.324
  12.680	    191.67	    39.965
  12.700	    150.00	    35.355
  12.720	    191.67	    39.965
  12.740	    191.67	    39.965
  12.760	    166.67	    37.268
  12.780	     91.67	    27.639
  12.800	    108.33	    30.046
  12.820	    125.00	    32.275
  12.840	    141.67	    34.359
  12.860	    250.00	    45.644
  12.880	    191.67	    39.965
  12.900	    175.00	    38.188
  12.920	    175.00	    38.188
  12.940	     91.67	    27.639
  12.960	    233.33	    44.096
  12.980	    216.67	    42.492
  13.000	    158.33	    36.324
  13.020	    150.00	    35.355
  13.040	    166.67	    37.268
  13.060	    191.67	    39.965
  13.080	    183.33	    39.087
  13.100	    183.33	    39.087
  13.120	    208.33	    41.667
  13.140	    166.67	    37.268
  13.160	    133.33	    33.333
  13.180	    191.67	    39.965
  13.200	    166.67	    37.268
  13.220	    125.00	    32.275
  13.240	    166.67	    37.268
  13.260	    133.33	    33.333
  13.280	    216.67	    42.492
  13.300	    183.33	    39.087
  13.320	    166.67	    37.268
  13.340	    116.67	    31.180
  13.360	    191.67	    39.965
  13.380	    158.33	    36.324
  13.400	    258.33	    46.398
  13.420	    133.33	    33.333
  13.440	    166.67	    37.268
  13.460	    116.67	    31.180
  13.480	    125.00	    32.275
  13.500	    158.33	    36.324
  13.520	    175.00	    38.188
  13.540	    166.67	    37.268
  13.560	    166.67	    37.268
  13.580	    141.67	    34.359
  13.600	    141.67	    34.359
  13.620	    150.00	    35.355
  13.640	    266.67	    47.140
  13.660	    158.33	    36.324
  13.680	    191.67	    39.965
  13.700	    216.67	    42.492
  13.720	    116.67	    31.180
  13.740	    141.67	    34.359
  13.760	    166.67	    37.268
  13.780	    200.00	    40.825
  13.800	    166.67	    37.268
  13.820	    150.00	    35.355
  13.840	    200.00	    40.825
  13.860	    175.00	    38.188
  13.880	    141.67	    34.359
  13.900	    175.00	    38.188
  13.920	    141.67	    34.359
  13.940	    150.00	    35.355
  13.960	    175.00	    38.188
  13.980	    125.00	    32.275
  14.000	    208.33	    41.667
  14.020	    116.67	    31.180
  14.040	    166.67	    37.268
  14.060	    208.33	    41.667
  14.080	    166.67	    37.268
  14.100	    208.33	    41.667
  14.120	    200.00	    40.825
  14.140	    133.33	    33.333
  14.160	    183.33	    39.087
  14.180	    150.00	    35.355
  14.200	    166.67	    37.268
  14.220	    158.33	    36.324
  14.240	    108.33	    30.046
  14.260	    150.00	    35.355
  14.280	    191.67	    39.965
  14.300	    200.00	    40.825
  14.320	    175.00	    38.188
  14.340	    116.67	    31.180
  14.360	    158.33	    36.324
  14.380	    191.67	    39.965
  14.400	    208.33	    41.667
  14.420	    183.33	    39.087
  14.440	    191.67	    39.965
  14.460	    116.67	    31.180
  14.480	    208.33	    41.667
  14.500	    133.33	    33.333
  14.520	    166.67	    37.268
  14.540	    200.00	    40.825
  14.560	    150.00	    35.355
  14.580	    191.67	    39.965
  14.600	    241.67	    44.876
  14.620	    175.00	    38.188
  14.640	     91.67	    27.639
  14.660	    200.00	    40.825
  14.680	    191.67	    39.965
  14.700	    150.00	    35.355
  14.720	    166.67	    37.268
  14.740	    166.67	    37.268
  14.760	    216.67	    42.492
  14.780	    166.67	    37.268
  14.800	    158.33	    36.324
  14.820	    191.67	    39.965
  14.840	    200.00	    40.825
  14.860	    225.00	    43.301
  14.880	    166.67	    37.268
  14.900	    266.67	    47.140
  14.920	    166.67	    37.268
  14.940	    191.67	    39.965
  14.960	    250.00	    45.644
  14.980	    183.33	    39.087
  15.000	    191.67	    39.965
  15.020	    150.00	    35.355
  15.040	    200.00	    40.825
  15.060	    133.33	    33.333
  15.080	    216.67	    42.492
  15.100	    175.00	    38.188
  15.120	    283.33	    48.591
  15.140	    116.67	    31.180
  15.160	    150.00	    35.355
  15.180	    216.67	    42.492
  15.200	    200.00	    40.825
  15.220	    208.33	    41.667
  15.240	    175.00	    38.188
  15.260	    183.33	    39.087
  15.280	    216.67	    42.492
  15.300	    125.00	    32.275
  15.320	    141.67	    34.359
  15.340	    241.67	    44.876
  15.360	    241.67	    44.876
  15.380	    141.67	    34.359
  15.400	    216.67	    42.492
  15.420	    116.67	    31.180
  15.440	    141.67	    34.359
  15.460	    208.33	    41.667
  15.480	    241.67	    44.876
  15.500	    208.33	    41.667
  15.520	    116.67	    31.180
  15.540	    266.67	    47.140
  15.560	    141.67	    34.359
  15.580	    266.67	    47.140
  15.600	    158.33	    36.324
  15.620	    158.33	    36.324
  15.640	    133.33	    33.333
  15.660	    191.67	    39.965
  15.680	    216.67	    42.492
  15.700	    175.00	    38.188
  15.720	    241.67	    44.876
  15.740	    191.67	    39.965
  15.760	    225.00	    43.301
  15.780	    216.67	    42.492
  15.800	    241.67	    44.876
  15.820	    191.67	    39.965
  15.840	    175.00	    38.188
  15.860	    216.67	    42.492
  15.880	    241.67	    44.876
  15.900	    266.67	    47.140
  15.920	    241.67	    44.876
  15.940	    183.33	    39.087
  15.960	    200.00	    40.825
  15.980	    183.33	    39.087
  16.000	    200.00	    40.825
  16.020	    216.67	    42.492
  16.040	    183.33	    39.087
  16.060	    241.67	    44.876
  16.080	    250.00	    45.644
  16.100	    250.00	    45.644
  16.120	    233.33	    44.096
  16.140	    241.67	    44.876
  16.160	    191.67	    39.965
  16.180	    191.67	    39.965
  16.200	    191.67	    39.965
  16.220	    175.00	    38.188
  16.240	    183.33	    39.087
  16.260	    233.33	    44.096
  16.280	    308.33	    50.690
  16.300	    233.33	    44.096
  16.320	    216.67	    42.492
  16.340	    233.33	    44.096
  16.360	    225.00	    43.301
  16.380	    216.67	    42.492
  16.400	    158.33	    36.324
  16.420	    200.00	    40.825
  16.440	    291.67	    49.301
  16.460	    275.00	    47.871
  16.480	    241.67	    44.876
  16.500	    158.33	    36.324
  16.520	    283.33	    48.591
  16.540	    191.67	    39.965
  16.560	    233.33	    44.096
  16.580	    208.33	    41.667
  16.600	    250.00	    45.644
  16.620	    191.67	    39.965
  16.640	    266.67	    47.140
  16.660	    233.33	    44.096
  16.680	    183.33	    39.087
  16.700	    241.67	    44.876
  16.720	    258.33	    46.398
  16.740	    191.67	    39.965
  16.760	    275.00	    47.871
  16.780	    166.67	    37.268
  16.800	    216.67	    42.492
  16.820	    225.00	    43.301
  16.840	    200.00	    40.825
  16.860	    341.67	    53.359
  16.880	    175.00	    38.188
  16.900	    191.67	    39.965
  16.920	    175.00	    38.188
  16.940	    191.67	    39.965
  16.960	    216.67	    42.492
  16.980	    208.33	    41.667
  17.000	    241.67	    44.876
  17.020	    175.00	    38.188
  17.040	    216.67	    42.492
  17.060	    250.00	    45.644
  17.080	    175.00	    38.188
  17.100	    308.33	    50.690
  17.120	    216.67	    42.492
  17.140	    275.00	    47.871
  17.160	    216.67	    42.492
  17.180	    300.00	    50.000
  17.200	    233.33	    44.096
  17.220	    241.67	    44.876
  17.240	    250.00	    45.644
  17.260	    191.67	    39.965
  17.280	    225.00	    43.301
  17.300	    250.00	    45.644
  17.320	    158.33	    36.324
  17.340	    216.67	    42.492
  17.360	    266.67	    47.140
  17.380	    250.00	    45.644
  17.400	    191.67	    39.965
  17.420	    191.67	    39.965
  17.440	    316.67	    51.370
  17.460	    241.67	    44.876
  17.480	    200.00	    40.825
  17.500	    166.67	    37.268
  17.520	    225.00	    43.301
  17.540	    191.67	    39.965
  17.560	    233.33	    44.096
  17.580	    225.00	    43.301
  17.600	    183.33	    39.087
  17.620	    266.67	    47.140
  17.640	    291.67	    49.301
  17.660	    216.67	    42.492
  17.680	    175.00	    38.188
  17.700	    341.67	    53.359
  17.720	    150.00	    35.355
  17.740	    283.33	    48.591
  17.760	    225.00	    43.301
  17.780	    233.33	    44.096
  17.800	    250.00	    45.644
  17.820	    183.33	    39.087
  17.840	    250.00	    45.644
  17.860	    166.67	    37.268
  17.880	    216.67	    42.492
  17.900	    208.33	    41.667
  17.920	    200.00	    40.825
  17.940	    175.00	    38.188
  17.960	    233.33	    44.096
  17.980	    175.00	    38.188
  18.000	    191.67	    39.965
  18.020	    241.67	    44.876
  18.040	    225.00	    43.301
  18.060	    233.33	    44.096
  18.080	    216.67	    42.492
  18.100	    200.00	    40.825
  18.120	    191.67	    39.965
  18.140	    266.67	    47.140
  18.160	    241.67	    44.876
  18.180	    241.67	    44.876
  18.200	    200.00	    40.825
  18.220	    216.67	    42.492
  18.240	    225.00	    43.301
  18.260	    200.00	    40.825
  18.280	    183.33	    39.087
  18.300	    225.00	    43.301
  18.320	    233.33	    44.096
  18.340	    275.00	    47.871
  18.360	    225.00	    43.301
  18.380	    258.33	    46.398
  18.400	    208.33	    41.667
  18.420	    158.33	    36.324
  18.440	    175.00	    38.188
  18.460	    175.00	    38.188
  18.480	    266.67	    47.140
  18.500	    266.67	    47.140
  18.520	    141.67	    34.359
  18.540	    225.00	    43.301
  18.560	    191.67	    39.965
  18.580	    316.67	    51.370
  18.600	    275.00	    47.871
  18.620	    316.67	    51.370
  18.640	    200.00	    40.825
  18.660	    208.33	    41.667
  18.680	    216.67	    42.492
  18.700	    233.33	    44.096
  18.720	    200.00	    40.825
  18.740	    183.33	    39.087
  18.760	    241.67	    44.876
  18.780	    208.33	    41.667
  18.800	    208.33	    41.667
  18.820	    216.67	    42.492
  18.840	    266.67	    47.140
  18.860	    216.67	    42.492
  18.880	    141.67	    34.359
  18.900	    208.33	    41.667
  18.920	    150.00	    35.355
  18.940	    258.33	    46.398
  18.960	    166.67	    37.268
  18.980	    233.33	    44.096
  19.000	    175.00	    38.188
  19.020	    258.33	    46.398
  19.040	    208.33	    41.667
  19.060	    258.33	    46.398
  19.080	    175.00	    38.188
  19.100	    241.67	    44.876
  19.120	    316.67	    51.370
  19.140	    216.67	    42.492
  19.160	    233.33	    44.096
  19.180	    250.00	    45.644
  19.200	    133.33	    33.333
  19.220	    233.33	    44.096
  19.240	    241.67	    44.876
  19.260	    216.67	    42.492
  19.280	    241.67	    44.876
  19.300	    225.00	    43.301
  19.320	    225.00	    43.301
  19.340	    191.67	    39.965
  19.360	    241.67	    44.876
  19.380	    250.00	    45.644
  19.400	    241.67	    44.876
  19.420	    225.00	    43.301
  19.440	    258.33	    46.398
  19.460	    241.67	    44.876
  19.480	    291.67	    49.301
  19.500	    208.33	    41.667
  19.520	    191.67	    39.965
  19.540	    225.00	    43.301
  19.560	    200.00	    40.825
  19.580	    233.33	    44.096
  19.600	    283.33	    48.591
  19.620	    241.67	    44.876
  19.640	    166.67	    37.268
  19.660	    183.33	    39.087
  19.680	    275.00	    47.871
  19.700	    241.67	    44.876
  19.720	    183.33	    39.087
  19.740	    200.00	    40.825
  19.760	    216.67	    42.492
  19.780	    200.00	    40.825
  19.800	    208.33	    41.667
  19.820	    275.00	    47.871
  19.840	    208.33	    41.667
  19.860	    141.67	    34.359
  19.880	    208.33	    41.667
  19.900	    183.33	    39.087
  19.920	    141.67	    34.359
  19.940	    158.33	    36.324
  19.960	    183.33	    39.087
  19.980	    275.00	    47.871
  20.000	    191.67	    39.965
  20.020	    216.67	    42.492
  20.040	    241.67	    44.876
  20.060	    200.00	    40.825
  20.080	    225.00	    43.301
  20.100	    216.67	    42.492
  20.120	    216.67	    42.492
  20.140	    225.00	    43.301
  20.160	    216.67	    42.492
  20.180	    191.67	    39.965
  20.200	    233.33	    44.096
  20.220	    225.00	    43.301
  20.240	    200.00	    40.825
  20.260	    266.67	    47.140
  20.280	    241.67	    44.876
  20.300	    150.00	    35.355
  20.320	    200.00	    40.825
  20.340	    208.33	    41.667
  20.360	    150.00	    35.355
  20.380	    166.67	    37.268
  20.400	    200.00	    40.825
  20.420	    158.33	    36.324
  20.440	    300.00	    50.000
  20.460	    233.33	    44.096
  20.480	    225.00	    43.301
  20.500	    241.67	    44.876
  20.520	    158.33	    36.324
  20.540	    158.33	    36.324
  20.560	    175.00	    38.188
  20.580	    166.67	    37.268
  20.600	    150.00	    35.355
  20.620	    191.67	    39.965
  20.640	    275.00	    47.871
  20.660	    158.33	    36.324
  20.680	    183.33	    39.087
  20.700	    241.67	    44.876
  20.720	    233.33	    44.096
  20.740	    233.33	    44.096
  20.760	    183.33	    39.087
  20.780	    250.00	    45.644
  20.800	    141.67	    34.359
  20.820	    183.33	    39.087
  20.840	    200.00	    40.825
  20.860	    241.67	    44.876
  20.880	    208.33	    41.667
  20.900	    250.00	    45.644
  20.920	    250.00	    45.644
  20.940	    183.33	    39.087
  20.960	    166.67	    37.268
  20.980	    250.00	    45.644
  21.000	    275.00	    47.871
  21.020	    241.67	    44.876
  21.040	    158.33	    36.324
  21.060	    191.67	    39.965
  21.080	    150.00	    35.355
  21.100	    158.33	    36.324
  21.120	    183.33	    39.087
  21.140	    150.00	    35.355
  21.160	    266.67	    47.140
  21.180	    175.00	    38.188
  21.200	    158.33	    36.324
  21.220	    241.67	    44.876
  21.240	    208.33	    41.667
  21.260	    166.67	    37.268
  21.280	    200.00	    40.825
  21.300	    216.67	    42.492
  21.320	    225.00	    43.301
  21.340	    183.33	    39.087
  21.360	    225.00	    43.301
  21.380	    141.67	    34.359
  21.400	    133.33	    33.333
  21.420	    225.00	    43.301
  21.440	    175.00	    38.188
  21.460	    175.00	    38.188
  21.480	    250.00	    45.644
  21.500	    233.33	    44.096
  21.520	    150.00	    35.355
  21.540	    241.67	    44.876
  21.560	    175.00	    38.188
  21.580	    216.67	    42.492
  21.600	    208.33	    41.667
  21.620	    175.00	    38.188
  21.640	    158.33	    36.324
  21.660	    141.67	    34.359
  21.680	    216.67	    42.492
  21.700	    183.33	    39.087
  21.720	    108.33	    30.046
  21.740	    283.33	    48.591
  21.760	     75.00	    25.000
  21.780	    200.00	    40.825
  21.800	    191.67	    39.965
  21.820	    166.67	    37.268
  21.840	    141.67	    34.359
  21.860	    208.33	    41.667
  21.880	    225.00	    43.301
  21.900	    200.00	    40.825
  21.920	    233.33	    44.096
  21.940	    191.67	    39.965
  21.960	    191.67	    39.965
  21.980	    166.67	    37.268
  22.000	    158.33	    36.324
  22.020	    191.67	    39.965
  22.040	    175.00	    38.188
  22.060	    166.67	    37.268
  22.080	    208.33	    41.667
  22.100	    216.67	    42.492
  22.120	    166.67	    37.268
  22.140	    183.33	    39.087
  22.160	    150.00	    35.355
  22.180	    191.67	    39.965
  22.200	    233.33	    44.096
  22.220	    175.00	    38.188
  22.240	    225.00	    43.301
  22.260	    150.00	    35.355
  22.280	    200.00	    40.825
  22.300	    141.67	    34.359
  22.320	    133.33	    33.333
  22.340	    200.00	    40.825
  22.360	    233.33	    44.096
  22.380	    200.00	    40.825
  22.400	    250.00	    45.644
  22.420	    208.33	    41.667
  22.440	    133.33	    33.333
  22.460	    191.67	    39.965
  22.480	    150.00	    35.355
  22.500	    191.67	    39.965
  22.520	    291.67	    49.301
  22.540	    166.67	    37.268
  22.560	    166.67	    37.268
  22.580	    108.33	    30.046
  22.600	    208.33	    41.667
  22.620	    200.00	    40.825
  22.640	    158.33	    36.324
  22.660	    183.33	    39.087
  22.680	    183.33	    39.087
  22.700	    158.33	    36.324
  22.720	    208.33	    41.667
  22.740	     66.67	    23.570
  22.760	    208.33	    41.667
  22.780	    150.00	    35.355
  22.800	    141.67	    34.359
  22.820	    175.00	    38.188
  22.840	    116.67	    31.180
  22.860	    141.67	    34.359
  22.880	    116.67	    31.180
  22.900	    166.67	    37.268
  22.920	    175.00	    38.188
  22.940	    175.00	    38.188
  22.960	    133.33	    33.333
  22.980	    166.67	    37.268
  23.000	    208.33	    41.667
  23.020	    166.67	    37.268
  23.040	    183.33	    39.087
  23.060	    158.33	    36.324
  23.080	    116.67	    31.180
  23.100	    166.67	    37.268
  23.120	    133.33	    33.333
  23.140	    208.33	    41.667
  23.160	    175.00	    38.188
  23.180	    166.67	    37.268
  23.200	    108.33	    30.046
  23.220	    108.33	    30.046
  23.240	    158.33	    36.324
  23.260	    266.67	    47.140
  23.280	    200.00	    40.825
  23.300	    150.00	    35.355
  23.320	    133.33	    33.333
  23.340	    175.00	    38.188
  23.360	    125.00	    32.275
  23.380	    158.33	    36.324
  23.400	    141.67	    34.359
  23.420	     91.67	    27.639
  23.440	     83.33	    26.352
  23.460	    108.33	    30.046
  23.480	    216.67	    42.492
  23.500	    125.00	    32.275
  23.520	    200.00	    40.825
  23.540	    141.67	    34.359
  23.560	    166.67	    37.268
  23.580	    191.67	    39.965
  23.600	    158.33	    36.324
  23.620	    141.67	    34.359
  23.640	    158.33	    36.324
  23.660	    158.33	    36.324
  23.680	    141.67	    34.359
  23.700	    166.67	    37.268
  23.720	    233.33	    44.096
  23.740	    183.33	    39.087
  23.760	    150.00	    35.355
  23.780	    116.67	    31.180
  23.800	    141.67	    34.359
  23.820	     75.00	    25.000
  23.840	    116.67	    31.180
  23.860	    216.67	    42.492
  23.880	    116.67	    31.180
  23.900	    233.33	    44.096
  23.920	    133.33	    33.333
  23.940	    191.67	    39.965
  23.960	    133.33	    33.333
  23.980	    100.00	    28.868
  24.000	    208.33	    41.667
  24.020	    166.67	    37.268
  24.040	    183.33	    39.087
  24.060	    175.00	    38.188
  24.080	    166.67	    37.268
  24.100	    250.00	    45.644
  24.120	    108.33	    30.046
  24.140	    175.00	    38.188
  24.160	    183.33	    39.087
  24.180	    125.00	    32.275
  24.200	    108.33	    30.046
  24.220	    150.00	    35.355
  24.240	    133.33	    33.333
  24.260	     91.67	    27.639
  24.280	    133.33	    33.333
  24.300	    108.33	    30.046
  24.320	    183.33	    39.087
  24.340	    141.67	    34.359
  24.360	    166.67	    37.268
  24.380	    116.67	    31.180
  24.400	     91.67	    27.639
  24.420	    175.00	    38.188
  24.440	    166.67	    37.268
  24.460	    175.00	    38.188
  24.480	    158.33	    36.324
  24.500	    183.33	    39.087
  24.520	    208.33	    41.667
  24.540	    158.33	    36.324
  24.560	    158.33	    36.324
  24.580	    208.33	    41.667
  24.600	    100.00	    28.868
  24.620	    175.00	    38.188
  24.640	    216.67	    42.492
  24.660	    141.67	    34.359
  24.680	    100.00	    28.868
  24.700	    158.33	    36.324
  24.720	    141.67	    34.359
  24.740	    133.33	    33.333
  24.760	    116.67	    31.180
  24.780	    108.33	    30.046
  24.800	    108.33	    30.046
  24.820	    175.00	    38.188
  24.840	    175.00	    38.188
  24.860	    108.33	    30.046
  24.880	    133.33	    33.333
  24.900	    216.67	    42.492
  24.920	    141.67	    34.359
  24.940	    150.00	    35.355
  24.960	    125.00	    32.275
  24.980	    100.00	    28.868
  25.000	    100.00	    28.868
  25.020	    100.00	    28.868
  25.040	    158.33	    36.324
  25.060	    125.00	    32.275
  25.080	     91.67	    27.639
  25.100	    191.67	    39.965
  25.120	    200.00	    40.825
  25.140	    241.67	    44.876
  25.160	    100.00	    28.868
  25.180	    158.33	    36.324
  25.200	    200.00	    40.825
  25.220	    108.33	    30.046
  25.240	    125.00	    32.275
  25.260	    141.67	    34.359
  25.280	    150.00	    35.355
  25.300	    116.67	    31.180
  25.320	    158.33	    36.324
  25.340	    125.00	    32.275
  25.360	    108.33	    30.046
  25.380	    158.33	    36.324
  25.400	    141.67	    34.359
  25.420	    141.67	    34.359
  25.440	    158.33	    36.324
  25.460	    141.67	    34.359
  25.480	    175.00	    38.188
  25.500	    200.00	    40.825
  25.520	    150.00	    35.355
  25.540	    208.33	    41.667
  25.560	    183.33	    39.087
  25.580	    183.33	    39.087
  25.600	    200.00	    40.825
  25.620	    241.67	    44.876
  25.640	    175.00	    38.188
  25.660	    175.00	    38.188
  25.680	    275.00	    47.871
  25.700	    133.33	    33.333
  25.720	    191.67	    39.965
  25.740	    175.00	    38.188
  25.760	    141.67	    34.359
  25.780	    116.67	    31.180
  25.800	    175.00	    38.188
  25.820	    166.67	    37.268
  25.840	    116.67	    31.180
  25.860	    100.00	    28.868
  25.880	    141.67	    34.359
  25.900	    158.33	    36.324
  25.920	    125.00	    32.275
  25.940	    175.00	    38.188
  25.960	    191.67	    39.965
  25.980	    183.33	    39.087
  26.000	    200.00	    40.825
  26.020	    175.00	    38.188
  26.040	    141.67	    34.359
  26.060	     83.33	    26.352
  26.080	    125.00	    32.275
  26.100	    183.33	    39.087
  26.120	    133.33	    33.333
  26.140	    191.67	    39.965
  26.160	     83.33	    26.352
  26.180	    125.00	    32.275
  26.200	    150.00	    35.355
  26.220	    108.33	    30.046
  26.240	    125.00	    32.275
  26.260	    100.00	    28.868
  26.280	    141.67	    34.359
  26.300	    133.33	    33.333
  26.320	     66.67	    23.570
  26.340	    108.33	    30.046
  26.360	    108.33	    30.046
  26.380	    116.67	    31.180
  26.400	    141.67	    34.359
  26.420	    141.67	    34.359
  26.440	    125.00	    32.275
  26.460	    150.00	    35.355
  26.480	     91.67	    27.639
  26.500	    183.33	    39.087
  26.520	    116.67	    31.180
  26.540	    141.67	    34.359
  26.560	    216.67	    42.492
  26.580	    250.00	    45.644
  26.600	    133.33	    33.333
  26.620	    133.33	    33.333
  26.640	    141.67	    34.359
  26.660	    125.00	    32.275
  26.680	    150.00	    35.355
  26.700	    141.67	    34.359
  26.720	    150.00	    35.355
  26.740	    133.33	    33.333
  26.760	    175.00	    38.188
  26.780	    116.67	    31.180
  26.800	    158.33	    36.324
  26.820	    125.00	    32.275
  26.840	    100.00	    28.868
  26.860	    150.00	    35.355
  26.880	    200.00	    40.825
  26.900	    166.67	    37.268
  26.920	    175.00	    38.188
  26.940	    125.00	    32.275
  26.960	    125.00	    32.275
  26.980	    125.00	    32.275
  27.000	    150.00	    35.355
  27.020	    133.33	    33.333
  27.040	    175.00	    38.188
  27.060	    133.33	    33.333
  27.080	    133.33	    33.333
  27.100	    133.33	    33.333
  27.120	    116.67	    31.180
  27.140	    116.67	    31.180
  27.160	    150.00	    35.355
  27.180	    150.00	    35.355
  27.200	    116.67	    31.180
  27.220	    150.00	    35.355
  27.240	    158.33	    36.324
  27.260	    133.33	    33.333
  27.280	    125.00	    32.275
  27.300	    183.33	    39.087
  27.320	    175.00	    38.188
  27.340	    216.67	    42.492
  27.360	    125.00	    32.275
  27.380	    158.33	    36.324
  27.400	    191.67	    39.965
  27.420	    150.00	    35.355
  27.440	    233.33	    44.096
  27.460	    208.33	    41.667
  27.480	    191.67	    39.965
  27.500	    141.67	    34.359
  27.520	    175.00	    38.188
  27.540	    116.67	    31.180
  27.560	    158.33	    36.324
  27.580	    200.00	    40.825
  27.600	     75.00	    25.000
  27.620	    166.67	    37.268
  27.640	    108.33	    30.046
  27.660	    125.00	    32.275
  27.680	    125.00	    32.275
  27.700	    216.67	    42.492
  27.720	    175.00	    38.188
  27.740	    258.33	    46.398
  27.760	    200.00	    40.825
  27.780	    158.33	    36.324
  27.800	    225.00	    43.301
  27.820	    166.67	    37.268
  27.840	    150.00	    35.355
  27.860	    233.33	    44.096
  27.880	    191.67	    39.965
  27.900	    158.33	    36.324
  27.920	    258.33	    46.398
  27.940	    233.33	    44.096
  27.960	    225.00	    43.301
  27.980	    208.33	    41.667
  28.000	    200.00	    40.825
  28.020	    216.67	    42.492
  28.040	    266.67	    47.140
  28.060	    350.00	    54.006
  28.080	    250.00	    45.644
  28.100	    275.00	    47.871
  28.120	    258.33	    46.398
  28.140	    475.00	    62.915
  28.160	    450.00	    61.237
  28.180	    641.67	    73.125
  28.200	    816.67	    82.496
  28.220	    966.67	    89.753
  28.240	   1433.33	   109.291
  28.260	   2008.33	   129.368
  28.280	   2991.67	   157.894
  28.300	   3816.67	   178.341
  28.320	   4591.67	   195.612
  28.340	   5491.67	   213.925
  28.360	   6416.67	   231.241
  28.380	   6391.67	   230.790
  28.400	   6425.00	   231.391
  28.420	   6158.33	   226.538
  28.440	   5583.33	   215.703
  28.460	   5208.33	   208.333
  28.480	   4041.67	   183.523
  28.500	   3083.33	   160.295
  28.520	   2258.33	   137.184
  28.540	   1691.67	   118.732
  28.560	   1250.00	   102.062
  28.580	    633.33	    72.648
  28.600	    575.00	    69.222
  28.620	    366.67	    55.277
  28.640	    291.67	    49.301
  28.660	    275.00	    47.871
  28.680	    266.67	    47.140
  28.700	    266.67	    47.140
  28.720	    258.33	    46.398
  28.740	    316.67	    51.370
  28.760	    233.33	    44.096
  28.780	    200.00	    40.825
  28.800	    225.00	    43.301
  28.820	    208.33	    41.667
  28.840	    258.33	    46.398
  28.860	    216.67	    42.492
  28.880	    200.00	    40.825
  28.900	    150.00	    35.355
  28.920	    175.00	    38.188
  28.940	    158.33	    36.324
  28.960	    175.00	    38.188
  28.980	     91.67	    27.639
  29.000	    191.67	    39.965
  29.020	    133.33	    33.333
  29.040	    175.00	    38.188
  29.060	    108.33	    30.046
  29.080	    225.00	    43.301
  29.100	    100.00	    28.868
  29.120	    116.67	    31.180
  29.140	    175.00	    38.188
  29.160	    225.00	    43.301
  29.180	     75.00	    25.000
  29.200	    141.67	    34.359
  29.220	     91.67	    27.639
  29.240	    150.00	    35.355
  29.260	    116.67	    31.180
  29.280	    191.67	    39.965
  29.300	    133.33	    33.333
  29.320	    200.00	    40.825
  29.340	    100.00	    28.868
  29.360	    166.67	    37.268
  29.380	     83.33	    26.352
  29.400	    125.00	    32.275
  29.420	    158.33	    36.324
  29.440	    108.33	    30.046
  29.460	    158.33	    36.324
  29.480	    125.00	    32.275
  29.500	    150.00	    35.355
  29.520	    191.67	    39.965
  29.540	    175.00	    38.188
  29.560	    166.67	    37.268
  29.580	    175.00	    38.188
  29.600	    141.67	    34.359
  29.620	    125.00	    32.275
  29.640	     91.67	    27.639
  29.660	    158.33	    36.324
  29.680	     91.67	    27.639
  29.700	    208.33	    41.667
  29.720	    233.33	    44.096
  29.740	    166.67	    37.268
  29.760	    133.33	    33.333
  29.780	    133.33	    33.333
  29.800	    150.00	    35.355
  29.820	    150.00	    35.355
  29.840	     83.33	    26.352
  29.860	    158.33	    36.324
  29.880	    125.00	    32.275
  29.900	    125.00	    32.275
  29.920	    125.00	    32.275
  29.940	    150.00	    35.355
  29.960	    166.67	    37.268
  29.980	    133.33	    33.333
  30.000	    125.00	    32.275
  30.020	    150.00	    35.355
  30.040	    116.67	    31.180
  30.060	    133.33	    33.333
  30.080	    125.00	    32.275
  30.100	     91.67	    27.639
  30.120	    133.33	    33.333
  30.140	    191.67	    39.965
  30.160	    108.33	    30.046
  30.180	     91.67	    27.639
  30.200	     91.67	    27.639
  30.220	    116.67	    31.180
  30.240	    166.67	    37.268
  30.260	    100.00	    28.868
  30.280	    141.67	    34.359
  30.300	    125.00	    32.275
  30.320	     75.00	    25.000
  30.340	    133.33	    33.333
  30.360	    191.67	    39.965
  30.380	    141.67	    34.359
  30.400	    200.00	    40.825
  30.420	     83.33	    26.352
  30.440	    175.00	    38.188
  30.460	    166.67	    37.268
  30.480	    141.67	    34.359
  30.500	     91.67	    27.639
  30.520	     83.33	    26.352
  30.540	    125.00	    32.275
  30.560	    200.00	    40.825
  30.580	    125.00	    32.275
  30.600	    183.33	    39.087
  30.620	     66.67	    23.570
  30.640	    133.33	    33.333
  30.660	    133.33	    33.333
  30.680	    116.67	    31.180
  30.700	    183.33	    39.087
  30.720	    108.33	    30.046
  30.740	    116.67	    31.180
  30.760	    141.67	    34.359
  30.780	    133.33	    33.333
  30.800	     83.33	    26.352
  30.820	    116.67	    31.180
  30.840	    133.33	    33.333
  30.860	    125.00	    32.275
  30.880	     91.67	    27.639
  30.900	    133.33	    33.333
  30.920	     91.67	    27.639
  30.940	     91.67	    27.639
  30.960	    100.00	    28.868
  30.980	     91.67	    27.639
  31.000	    108.33	    30.046
  31.020	    175.00	    38.188
  31.040	    150.00	    35.355
  31.060	    133.33	    33.333
  31.080	    183.33	    39.087
  31.100	     91.67	    27.639
  31.120	    158.33	    36.324
  31.140	     58.33	    22.048
  31.160	    133.33	    33.333
  31.180	    116.67	    31.180
  31.200	     91.67	    27.639
  31.220	    116.67	    31.180
  31.240	    100.00	    28.868
  31.260	    166.67	    37.268
  31.280	    141.67	    34.359
  31.300	    166.67	    37.268
  31.320	    166.67	    37.268
  31.340	    133.33	    33.333
  31.360	    125.00	    32.275
  31.380	    141.67	    34.359
  31.400	    166.67	    37.268
  31.420	    116.67	    31.180
  31.440	    133.33	    33.333
  31.460	     91.67	    27.639
  31.480	    125.00	    32.275
  31.500	    108.33	    30.046
  31.520	    125.00	    32.275
  31.540	    116.67	    31.180
  31.560	    125.00	    32.275
  31.580	    133.33	    33.333
  31.600	    100.00	    28.868
  31.620	    158.33	    36.324
  31.640	    108.33	    30.046
  31.660	     83.33	    26.352
  31.680	     83.33	    26.352
  31.700	    133.33	    33.333
  31.720	    116.67	    31.180
  31.740	    183.33	    39.087
  31.760	    108.33	    30.046
  31.780	    141.67	    34.359
  31.800	    158.33	    36.324
  31.820	     75.00	    25.000
  31.840	     91.67	    27.639
  31.860	    108.33	    30.046
  31.880	    125.00	    32.275
  31.900	    100.00	    28.868
  31.920	    116.67	    31.180
  31.940	    100.00	    28.868
  31.960	    116.67	    31.180
  31.980	     91.67	    27.639
  32.000	     75.00	    25.000
  32.020	    125.00	    32.275
  32.040	    166.67	    37.268
  32.060	     66.67	    23.570
  32.080	    116.67	    31.180
  32.100	     91.67	    27.639
  32.120	    116.67	    31.180
  32.140	    116.67	    31.180
  32.160	    116.67	    31.180
  32.180	     66.67	    23.570
  32.200	     83.33	    26.352
  32.220	     91.67	    27.639
  32.240	    125.00	    32.275
  32.260	    116.67	    31.180
  32.280	    133.33	    33.333
  32.300	     91.67	    27.639
  32.320	    125.00	    32.275
  32.340	    108.33	    30.046
  32.360	    125.00	    32.275
  32.380	     83.33	    26.352
  32.400	    116.67	    31.180
  32.420	    141.67	    34.359
  32.440	    125.00	    32.275
  32.460	    158.33	    36.324
  32.480	    133.33	    33.333
  32.500	    158.33	    36.324
  32.520	    108.33	    30.046
  32.540	    125.00	    32.275
  32.560	    133.33	    33.333
  32.580	     91.67	    27.639
  32.600	    108.33	    30.046
  32.620	    125.00	    32.275
  32.640	    141.67	    34.359
  32.660	    116.67	    31.180
  32.680	     83.33	    26.352
  32.700	     75.00	    25.000
  32.720	     75.00	    25.000
  32.740	    141.67	    34.359
  32.760	    116.67	    31.180
  32.780	    125.00	    32.275
  32.800	     83.33	    26.352
  32.820	    100.00	    28.868
  32.840	    150.00	    35.355
  32.860	    166.67	    37.268
  32.880	     75.00	    25.000
  32.900	    125.00	    32.275
  32.920	    141.67	    34.359
  32.940	    141.67	    34.359
  32.960	    150.00	    35.355
  32.980	    108.33	    30.046
  33.000	    133.33	    33.333
  33.020	    166.67	    37.268
  33.040	    133.33	    33.333
  33.060	    116.67	    31.180
  33.080	    125.00	    32.275
  33.100	    100.00	    28.868
  33.120	     75.00	    25.000
  33.140	    125.00	    32.275
  33.160	     66.67	    23.570
  33.180	    125.00	    32.275
  33.200	    108.33	    30.046
  33.220	    108.33	    30.046
  33.240	    108.33	    30.046
  33.260	    116.67	    31.180
  33.280	    108.33	    30.046
  33.300	    108.33	    30.046
  33.320	     66.67	    23.570
  33.340	     91.67	    27.639
  33.360	     66.67	    23.570
  33.380	    108.33	    30.046
  33.400	     91.67	    27.639
  33.420	    108.33	    30.046
  33.440	     83.33	    26.352
  33.460	    100.00	    28.868
  33.480	    141.67	    34.359
  33.500	     91.67	    27.639
  33.520	    125.00	    32.275
  33.540	     66.67	    23.570
  33.560	    125.00	    32.275
  33.580	    116.67	    31.180
  33.600	    158.33	    36.324
  33.620	    116.67	    31.180
  33.640	    100.00	    28.868
  33.660	     91.67	    27.639
  33.680	    100.00	    28.868
  33.700	    100.00	    28.868
  33.720	    108.33	    30.046
  33.740	     91.67	    27.639
  33.760	     75.00	    25.000
  33.780	    141.67	    34.359
  33.800	    100.00	    28.868
  33.820	    133.33	    33.333
  33.840	     58.33	    22.048
  33.860	     75.00	    25.000
  33.880	    133.33	    33.333
  33.900	    108.33	    30.046
  33.920	    141.67	    34.359
  33.940	    108.33	    30.046
  33.960	    100.00	    28.868
  33.980	    108.33	    30.046
  34.000	     91.67	    27.639
  34.020	    100.00	    28.868
  34.040	    116.67	    31.180
  34.060	    108.33	    30.046
  34.080	    125.00	    32.275
  34.100	    108.33	    30.046
  34.120	    158.33	    36.324
  34.140	    116.67	    31.180
  34.160	    133.33	    33.333
  34.180	    133.33	    33.333
  34.200	    150.00	    35.355
  34.220	    108.33	    30.046
  34.240	    108.33	    30.046
  34.260	    108.33	    30.046
  34.280	    133.33	    33.333
  34.300	    100.00	    28.868
  34.320	    116.67	    31.180
  34.340	    108.33	    30.046
  34.360	    133.33	    33.333
  34.380	     66.67	    23.570
  34.400	    125.00	    32.275
  34.420	    116.67	    31.180
  34.440	    141.67	    34.359
  34.460	     91.67	    27.639
  34.480	     75.00	    25.000
  34.500	    116.67	    31.180
  34.520	    150.00	    35.355
  34.540	    108.33	    30.046
  34.560	    150.00	    35.355
  34.580	    116.67	    31.180
  34.600	    108.33	    30.046
  34.620	    108.33	    30.046
  34.640	     91.67	    27.639
  34.660	     91.67	    27.639
  34.680	    125.00	    32.275
  34.700	    116.67	    31.180
  34.720	    133.33	    33.333
  34.740	    116.67	    31.180
  34.760	     83.33	    26.352
  34.780	     58.33	    22.048
  34.800	    141.67	    34.359
  34.820	    183.33	    39.087
  34.840	     75.00	    25.000
  34.860	     83.33	    26.352
  34.880	    116.67	    31.180
  34.900	     83.33	    26.352
  34.920	    100.00	    28.868
  34.940	     91.67	    27.639
  34.960	    108.33	    30.046
  34.980	     83.33	    26.352
  35.000	     83.33	    26.352
  35.020	    100.00	    28.868
  35.040	     75.00	    25.000
  35.060	     58.33	    22.048
  35.080	     41.67	    18.634
  35.100	    100.00	    28.868
  35.120	    158.33	    36.324
  35.140	    108.33	    30.046
  35.160	    108.33	    30.046
  35.180	    166.67	    37.268
  35.200	    166.67	    37.268
  35.220	    116.67	    31.180
  35.240	    125.00	    32.275
  35.260	     91.67	    27.639
  35.280	     83.33	    26.352
  35.300	    100.00	    28.868
  35.320	    100.00	    28.868
  35.340	    108.33	    30.046
  35.360	    100.00	    28.868
  35.380	    125.00	    32.275
  35.400	    108.33	    30.046
  35.420	     83.33	    26.352
  35.440	     50.00	    20.412
  35.460	     66.67	    23.570
  35.480	     58.33	    22.048
  35.500	    116.67	    31.180
  35.520	    133.33	    33.333
  35.540	    100.00	    28.868
  35.560	     75.00	    25.000
  35.580	    100.00	    28.868
  35.600	     66.67	    23.570
  35.620	     58.33	    22.048
  35.640	    125.00	    32.275
  35.660	    125.00	    32.275
  35.680	     41.67	    18.634
  35.700	    116.67	    31.180
  35.720	    116.67	    31.180
  35.740	    100.00	    28.868
  35.760	    108.33	    30.046
  35.780	     91.67	    27.639
  35.800	    133.33	    33.333
  35.820	    133.33	    33.333
  35.840	     75.00	    25.000
  35.860	     75.00	    25.000
  35.880	    108.33	    30.046
  35.900	    108.33	    30.046
  35.920	    191.67	    39.965
  35.940	     58.33	    22.048
  35.960	    125.00	    32.275
  35.980	    108.33	    30.046
  36.000	     58.33	    22.048
  36.020	     91.67	    27.639
  36.040	    116.67	    31.180
  36.060	     83.33	    26.352
  36.080	     83.33	    26.352
  36.100	    100.00	    28.868
  36.120	    175.00	    38.188
  36.140	     91.67	    27.639
  36.160	     58.33	    22.048
  36.180	    100.00	    28.868
  36.200	     83.33	    26.352
  36.220	     83.33	    26.352
  36.240	     75.00	    25.000
  36.260	     75.00	    25.000
  36.280	    125.00	    32.275
  36.300	     91.67	    27.639
  36.320	    133.33	    33.333
  36.340	     83.33	    26.352
  36.360	    133.33	    33.333
  36.380	     91.67	    27.639
  36.400	    150.00	    35.355
  36.420	     58.33	    22.048
  36.440	    116.67	    31.180
  36.460	    158.33	    36.324
  36.480	    133.33	    33.333
  36.500	     75.00	    25.000
  36.520	    183.33	    39.087
  36.540	    125.00	    32.275
  36.560	     91.67	    27.639
  36.580	     50.00	    20.412
  36.600	     83.33	    26.352
  36.620	     91.67	    27.639
  36.640	     50.00	    20.412
  36.660	     41.67	    18.634
  36.680	    108.33	    30.046
  36.700	    116.67	    31.180
  36.720	     91.67	    27.639
  36.740	     91.67	    27.639
  36.760	     83.33	    26.352
  36.780	     91.67	    27.639
  36.800	     83.33	    26.352
  36.820	    133.33	    33.333
  36.840	     41.67	    18.634
  36.860	    100.00	    28.868
  36.880	    133.33	    33.333
  36.900	     66.67	    23.570
  36.920	    108.33	    30.046
  36.940	    108.33	    30.046
  36.960	    108.33	    30.046
  36.980	     58.33	    22.048
  37.000	     75.00	    25.000
  37.020	     75.00	    25.000
  37.040	     75.00	    25.000
  37.060	    100.00	    28.868
  37.080	     66.67	    23.570
  37.100	    108.33	    30.046
  37.120	    100.00	    28.868
  37.140	    100.00	    28.868
  37.160	    108.33	    30.046
  37.180	    108.33	    30.046
  37.200	     91.67	    27.639
  37.220	     50.00	    20.412
  37.240	     66.67	    23.570
  37.260	    116.67	    31.180
  37.280	     66.67	    23.570
  37.300	     66.67	    23.570
  37.320	    100.00	    28.868
  37.340	     66.67	    23.570
  37.360	     91.67	    27.639
  37.380	    116.67	    31.180
  37.400	     83.33	    26.352
  37.420	    100.00	    28.868
  37.440	    141.67	    34.359
  37.460	    100.00	    28.868
  37.480	    108.33	    30.046
  37.500	    108.33	    30.046
  37.520	    108.33	    30.046
  37.540	     75.00	    25.000
  37.560	     58.33	    22.048
  37.580	     58.33	    22.048
  37.600	    108.33	    30.046
  37.620	     66.67	    23.570
  37.640	    141.67	    34.359
  37.660	    116.67	    31.180
  37.680	    116.67	    31.180
  37.700	     41.67	    18.634
  37.720	    158.33	    36.324
  37.740	     91.67	    27.639
  37.760	    108.33	    30.046
  37.780	     91.67	    27.639
  37.800	     83.33	    26.352
  37.820	     91.67	    27.639
  37.840	     91.67	    27.639
  37.860	    125.00	    32.275
  37.880	    100.00	    28.868
  37.900	     58.33	    22.048
  37.920	     91.67	    27.639
  37.940	    116.67	    31.180
  37.960	    108.33	    30.046
  37.980	     75.00	    25.000
  38.000	    125.00	    32.275
  38.020	     50.00	    20.412
  38.040	     58.33	    22.048
  38.060	     58.33	    22.048
  38.080	    100.00	    28.868
  38.100	    108.33	    30.046
  38.120	     83.33	    26.352
  38.140	    116.67	    31.180
  38.160	     91.67	    27.639
  38.180	     66.67	    23.570
  38.200	    133.33	    33.333
  38.220	    100.00	    28.868
  38.240	    125.00	    32.275
  38.260	     83.33	    26.352
  38.280	     91.67	    27.639
  38.300	    108.33	    30.046
  38.320	     66.67	    23.570
  38.340	    100.00	    28.868
  38.360	     91.67	    27.639
  38.380	    108.33	    30.046
  38.400	    133.33	    33.333
  38.420	     83.33	    26.352
  38.440	     75.00	    25.000
  38.460	     83.33	    26.352
  38.480	     75.00	    25.000
  38.500	    116.67	    31.180
  38.520	    100.00	    28.868
  38.540	     91.67	    27.639
  38.560	     50.00	    20.412
  38.580	    158.33	    36.324
  38.600	     83.33	    26.352
  38.620	    100.00	    28.868
  38.640	    116.67	    31.180
  38.660	     25.00	    14.434
  38.680	     83.33	    26.352
  38.700	     91.67	    27.639
  38.720	     33.33	    16.667
  38.740	    175.00	    38.188
  38.760	    108.33	    30.046
  38.780	     58.33	    22.048
  38.800	    108.33	    30.046
  38.820	     33.33	    16.667
  38.840	    100.00	    28.868
  38.860	     91.67	    27.639
  38.880	    125.00	    32.275
  38.900	     66.67	    23.570
  38.920	    133.33	    33.333
  38.940	     83.33	    26.352
  38.960	    108.33	    30.046
  38.980	     58.33	    22.048
  39.000	    100.00	    28.868
  39.020	     83.33	    26.352
  39.040	     75.00	    25.000
  39.060	     91.67	    27.639
  39.080	     83.33	    26.352
  39.100	    125.00	    32.275
  39.120	    116.67	    31.180
  39.140	    108.33	    30.046
  39.160	     91.67	    27.639
  39.180	     66.67	    23.570
  39.200	     91.67	    27.639
  39.220	     83.33	    26.352
  39.240	     66.67	    23.570
  39.260	    108.33	    30.046
  39.280	    116.67	    31.180
  39.300	    100.00	    28.868
  39.320	     75.00	    25.000
  39.340	    100.00	    28.868
  39.360	     75.00	    25.000
  39.380	     83.33	    26.352
  39.400	    100.00	    28.868
  39.420	     58.33	    22.048
  39.440	     91.67	    27.639
  39.460	    116.67	    31.180
  39.480	     91.67	    27.639
  39.500	    150.00	    35.355
  39.520	     83.33	    26.352
  39.540	    150.00	    35.355
  39.560	    116.67	    31.180
  39.580	     58.33	    22.048
  39.600	     83.33	    26.352
  39.620	     75.00	    25.000
  39.640	     91.67	    27.639
  39.660	    100.00	    28.868
  39.680	    100.00	    28.868
  39.700	     50.00	    20.412
  39.720	     83.33	    26.352
  39.740	     91.67	    27.639
  39.760	     83.33	    26.352
  39.780	     75.00	    25.000
  39.800	    125.00	    32.275
  39.820	    100.00	    28.868
  39.840	    133.33	    33.333
  39.860	    125.00	    32.275
  39.880	     91.67	    27.639
  39.900	     83.33	    26.352
  39.920	    100.00	    28.868
  39.940	     66.67	    23.570
  39.960	    125.00	    32.275
  39.980	     58.33	    22.048
  40.000	     91.67	    27.639
  40.020	    100.00	    28.868
  40.040	     83.33	    26.352
  40.060	    158.33	    36.324
  40.080	     75.00	    25.000
  40.100	    108.33	    30.046
  40.120	     50.00	    20.412
  40.140	    108.33	    30.046
  40.160	    108.33	    30.046
  40.180	     91.67	    27.639
  40.200	    116.67	    31.180
  40.220	     50.00	    20.412
  40.240	     91.67	    27.639
  40.260	    116.67	    31.180
  40.280	    108.33	    30.046
  40.300	    100.00	    28.868
  40.320	     83.33	    26.352
  40.340	    108.33	    30.046
  40.360	     33.33	    16.667
  40.380	     66.67	    23.570
  40.400	     66.67	    23.570
  40.420	     75.00	    25.000
  40.440	     91.67	    27.639
  40.460	    108.33	    30.046
  40.480	    108.33	    30.046
  40.500	     91.67	    27.639
  40.520	    100.00	    28.868
  40.540	     91.67	    27.639
  40.560	     58.33	    22.048
  40.580	     75.00	    25.000
  40.600	    116.67	    31.180
  40.620	    100.00	    28.868
  40.640	    116.67	    31.180
  40.660	    108.33	    30.046
  40.680	     66.67	    23.570
  40.700	     66.67	    23.570
  40.720	    100.00	    28.868
  40.740	    100.00	    28.868
  40.760	     58.33	    22.048
  40.780	     66.67	    23.570
  40.800	    100.00	    28.868
  40.820	     58.33	    22.048
  40.840	    175.00	    38.188
  40.860	     91.67	    27.639
  40.880	     66.67	    23.570
  40.900	    125.00	    32.275
  40.920	     91.67	    27.639
  40.940	    108.33	    30.046
  40.960	    116.67	    31.180
  40.980	     83.33	    26.352
  41.000	     83.33	    26.352
  41.020	    116.67	    31.180
  41.040	     66.67	    23.570
  41.060	     91.67	    27.639
  41.080	    150.00	    35.355
  41.100	     66.67	    23.570
  41.120	     75.00	    25.000
  41.140	    125.00	    32.275
  41.160	    108.33	    30.046
  41.180	     83.33	    26.352
  41.200	    133.33	    33.333
  41.220	     83.33	    26.352
  41.240	    116.67	    31.180
  41.260	     75.00	    25.000
  41.280	    100.00	    28.868
  41.300	     50.00	    20.412
  41.320	    133.33	    33.333
  41.340	     75.00	    25.000
  41.360	    100.00	    28.868
  41.380	     75.00	    25.000
  41.400	    100.00	    28.868
  41.420	     41.67	    18.634
  41.440	     75.00	    25.000
  41.460	     83.33	    26.352
  41.480	     75.00	    25.000
  41.500	     83.33	    26.352
  41.520	     91.67	    27.639
  41.540	    100.00	    28.868
  41.560	     91.67	    27.639
  41.580	     33.33	    16.667
  41.600	     75.00	    25.000
  41.620	    125.00	    32.275
  41.640	    108.33	    30.046
  41.660	     91.67	    27.639
  41.680	    100.00	    28.868
  41.700	     75.00	    25.000
  41.720	     91.67	    27.639
  41.740	    116.67	    31.180
  41.760	    125.00	    32.275
  41.780	    183.33	    39.087
  41.800	     83.33	    26.352
  41.820	    108.33	    30.046
  41.840	     75.00	    25.000
  41.860	     58.33	    22.048
  41.880	    116.67	    31.180
  41.900	     75.00	    25.000
  41.920	     83.33	    26.352
  41.940	     41.67	    18.634
  41.960	     91.67	    27.639
  41.980	     91.67	    27.639
  42.000	    108.33	    30.046
  42.020	    150.00	    35.355
  42.040	     75.00	    25.000
  42.060	     66.67	    23.570
  42.080	    125.00	    32.275
  42.100	     66.67	    23.570
  42.120	    108.33	    30.046
  42.140	    166.67	    37.268
  42.160	     50.00	    20.412
  42.180	    150.00	    35.355
  42.200	     33.33	    16.667
  42.220	     91.67	    27.639
  42.240	    133.33	    33.333
  42.260	    108.33	    30.046
  42.280	     66.67	    23.570
  42.300	     91.67	    27.639
  42.320	    141.67	    34.359
  42.340	    108.33	    30.046
  42.360	     83.33	    26.352
  42.380	    108.33	    30.046
  42.400	    133.33	    33.333
  42.420	    141.67	    34.359
  42.440	    150.00	    35.355
  42.460	    158.33	    36.324
  42.480	    116.67	    31.180
  42.500	    141.67	    34.359
  42.520	    133.33	    33.333
  42.540	    141.67	    34.359
  42.560	    100.00	    28.868
  42.580	     83.33	    26.352
  42.600	     91.67	    27.639
  42.620	    141.67	    34.359
  42.640	    141.67	    34.359
  42.660	     75.00	    25.000
  42.680	    100.00	    28.868
  42.700	     75.00	    25.000
  42.720	     83.33	    26.352
  42.740	     66.67	    23.570
  42.760	    116.67	    31.180
  42.780	    108.33	    30.046
  42.800	    133.33	    33.333
  42.820	    108.33	    30.046
  42.840	     91.67	    27.639
  42.860	     75.00	    25.000
  42.880	     83.33	    26.352
  42.900	     50.00	    20.412
  42.920	     75.00	    25.000
  42.940	    166.67	    37.268
  42.960	    116.67	    31.180
  42.980	    108.33	    30.046
  43.000	     66.67	    23.570
  43.020	    100.00	    28.868
  43.040	    108.33	    30.046
  43.060	     58.33	    22.048
  43.080	     66.67	    23.570
  43.100	    108.33	    30.046
  43.120	     75.00	    25.000
  43.140	    133.33	    33.333
  43.160	    133.33	    33.333
  43.180	     50.00	    20.412
  43.200	     83.33	    26.352
  43.220	     91.67	    27.639
  43.240	     58.33	    22.048
  43.260	     91.67	    27.639
  43.280	     83.33	    26.352
  43.300	     58.33	    22.048
  43.320	     91.67	    27.639
  43.340	     41.67	    18.634
  43.360	    108.33	    30.046
  43.380	    100.00	    28.868
  43.400	    158.33	    36.324
  43.420	    133.33	    33.333
  43.440	    141.67	    34.359
  43.460	    133.33	    33.333
  43.480	    108.33	    30.046
  43.500	    233.33	    44.096
  43.520	    200.00	    40.825
  43.540	    116.67	    31.180
  43.560	    133.33	    33.333
  43.580	    133.33	    33.333
  43.600	    100.00	    28.868
  43.620	    133.33	    33.333
  43.640	    100.00	    28.868
  43.660	    141.67	    34.359
  43.680	     58.33	    22.048
  43.700	     91.67	    27.639
  43.720	     66.67	    23.570
  43.740	    116.67	    31.180
  43.760	    116.67	    31.180
  43.780	     66.67	    23.570
  43.800	     75.00	    25.000
  43.820	    108.33	    30.046
  43.840	     83.33	    26.352
  43.860	     91.67	    27.639
  43.880	     91.67	    27.639
  43.900	     66.67	    23.570
  43.920	    108.33	    30.046
  43.940	     91.67	    27.639
  43.960	    108.33	    30.046
  43.980	    100.00	    28.868
  44.000	     66.67	    23.570
  44.020	    150.00	    35.355
  44.040	     83.33	    26.352
  44.060	    100.00	    28.868
  44.080	    116.67	    31.180
  44.100	    100.00	    28.868
  44.120	    100.00	    28.868
  44.140	     66.67	    23.570
  44.160	    116.67	    31.180
  44.180	    200.00	    40.825
  44.200	    116.67	    31.180
  44.220	     41.67	    18.634
  44.240	     83.33	    26.352
  44.260	     91.67	    27.639
  44.280	     83.33	    26.352
  44.300	    133.33	    33.333
  44.320	     75.00	    25.000
  44.340	     83.33	    26.352
  44.360	    108.33	    30.046
  44.380	     91.67	    27.639
  44.400	     66.67	    23.570
  44.420	    100.00	    28.868
  44.440	    116.67	    31.180
  44.460	     83.33	    26.352
  44.480	     41.67	    18.634
  44.500	     83.33	    26.352
  44.520	     91.67	    27.639
  44.540	    125.00	    32.275
  44.560	     91.67	    27.639
  44.580	    108.33	    30.046
  44.600	    100.00	    28.868
  44.620	    108.33	    30.046
  44.640	     75.00	    25.000
  44.660	    158.33	    36.324
  44.680	     75.00	    25.000
  44.700	     83.33	    26.352
  44.720	     75.00	    25.000
  44.740	    100.00	    28.868
  44.760	     75.00	    25.000
  44.780	    125.00	    32.275
  44.800	     75.00	    25.000
  44.820	     75.00	    25.000
  44.840	    100.00	    28.868
  44.860	    100.00	    28.868
  44.880	     58.33	    22.048
  44.900	     75.00	    25.000
  44.920	    100.00	    28.868
  44.940	     75.00	    25.000
  44.960	     66.67	    23.570
  44.980	     83.33	    26.352
  45.000	     75.00	    25.000
  45.020	     91.67	    27.639
  45.040	     75.00	    25.000
  45.060	     66.67	    23.570
  45.080	     91.67	    27.639
  45.100	    116.67	    31.180
  45.120	    116.67	    31.180
  45.140	    108.33	    30.046
  45.160	     83.33	    26.352
  45.180	     66.67	    23.570
  45.200	    150.00	    35.355
  45.220	     91.67	    27.639
  45.240	    108.33	    30.046
  45.260	    108.33	    30.046
  45.280	    191.67	    39.965
  45.300	    100.00	    28.868
  45.320	     33.33	    16.667
  45.340	     41.67	    18.634
  45.360	     83.33	    26.352
  45.380	     83.33	    26.352
  45.400	    141.67	    34.359
  45.420	     91.67	    27.639
  45.440	    100.00	    28.868
  45.460	     66.67	    23.570
  45.480	    166.67	    37.268
  45.500	    100.00	    28.868
  45.520	     58.33	    22.048
  45.540	    100.00	    28.868
  45.560	    100.00	    28.868
  45.580	    116.67	    31.180
  45.600	    108.33	    30.046
  45.620	    100.00	    28.868
  45.640	    175.00	    38.188
  45.660	     58.33	    22.048
  45.680	     91.67	    27.639
  45.700	    158.33	    36.324
  45.720	     58.33	    22.048
  45.740	    191.67	    39.965
  45.760	    108.33	    30.046
  45.780	     75.00	    25.000
  45.800	     50.00	    20.412
  45.820	     83.33	    26.352
  45.840	     83.33	    26.352
  45.860	    158.33	    36.324
  45.880	     58.33	    22.048
  45.900	     91.67	    27.639
  45.920	    125.00	    32.275
  45.940	    100.00	    28.868
  45.960	     33.33	    16.667
  45.980	    108.33	    30.046
  46.000	    150.00	    35.355
  46.020	    116.67	    31.180
  46.040	    141.67	    34.359
  46.060	     83.33	    26.352
  46.080	    100.00	    28.868
  46.100	     75.00	    25.000
  46.120	    125.00	    32.275
  46.140	     91.67	    27.639
  46.160	     83.33	    26.352
  46.180	    100.00	    28.868
  46.200	     58.33	    22.048
  46.220	    133.33	    33.333
  46.240	    100.00	    28.868
  46.260	     66.67	    23.570
  46.280	     83.33	    26.352
  46.300	    100.00	    28.868
  46.320	    108.33	    30.046
  46.340	    100.00	    28.868
  46.360	    108.33	    30.046
  46.380	     50.00	    20.412
  46.400	    125.00	    32.275
  46.420	    125.00	    32.275
  46.440	    100.00	    28.868
  46.460	     66.67	    23.570
  46.480	     50.00	    20.412
  46.500	    116.67	    31.180
  46.520	     58.33	    22.048
  46.540	    108.33	    30.046
  46.560	    116.67	    31.180
  46.580	    125.00	    32.275
  46.600	    116.67	    31.180
  46.620	    141.67	    34.359
  46.640	     91.67	    27.639
  46.660	    133.33	    33.333
  46.680	    141.67	    34.359
  46.700	     91.67	    27.639
  46.720	     83.33	    26.352
  46.740	    125.00	    32.275
  46.760	    116.67	    31.180
  46.780	    158.33	    36.324
  46.800	     83.33	    26.352
  46.820	    141.67	    34.359
  46.840	    125.00	    32.275
  46.860	    116.67	    31.180
  46.880	    116.67	    31.180
  46.900	    133.33	    33.333
  46.920	    125.00	    32.275
  46.940	    216.67	    42.492
  46.960	    225.00	    43.301
  46.980	    308.33	    50.690
  47.000	    175.00	    38.188
  47.020	    258.33	    46.398
  47.040	    291.67	    49.301
  47.060	    250.00	    45.644
  47.080	    325.00	    52.042
  47.100	    450.00	    61.237
  47.120	    491.67	    64.010
  47.140	    733.33	    78.174
  47.160	   1025.00	    92.421
  47.180	   1366.67	   106.719
  47.200	   2075.00	   131.498
  47.220	   2625.00	   147.902
  47.240	   3116.67	   161.159
  47.260	   2933.33	   156.347
  47.280	   3141.67	   161.804
  47.300	   3058.33	   159.644
  47.320	   2758.33	   151.612
  47.340	   2650.00	   148.605
  47.360	   2158.33	   134.112
  47.380	   1883.33	   125.277
  47.400	   1658.33	   117.556
  47.420	   1600.00	   115.470
  47.440	   1391.67	   107.690
  47.460	   1025.00	    92.421
  47.480	    650.00	    73.598
  47.500	    383.33	    56.519
  47.520	    366.67	    55.277
  47.540	    333.33	    52.705
  47.560	    216.67	    42.492
  47.580	    241.67	    44.876
  47.600	    175.00	    38.188
  47.620	    233.33	    44.096
  47.640	    200.00	    40.825
  47.660	    241.67	    44.876
  47.680	    166.67	    37.268
  47.700	    166.67	    37.268
  47.720	    158.33	    36.324
  47.740	    141.67	    34.359
  47.760	    133.33	    33.333
  47.780	    108.33	    30.046
  47.800	    158.33	    36.324
  47.820	    116.67	    31.180
  47.840	     91.67	    27.639
  47.860	    150.00	    35.355
  47.880	    158.33	    36.324
  47.900	     91.67	    27.639
  47.920	    158.33	    36.324
  47.940	    150.00	    35.355
  47.960	    191.67	    39.965
  47.980	    141.67	    34.359
  48.000	    108.33	    30.046
  48.020	     66.67	    23.570
  48.040	    100.00	    28.868
  48.060	    133.33	    33.333
  48.080	    100.00	    28.868
  48.100	    133.33	    33.333
  48.120	    108.33	    30.046
  48.140	     91.67	    27.639
  48.160	    116.67	    31.180
  48.180	     66.67	    23.570
  48.200	     66.67	    23.570
  48.220	     83.33	    26.352
  48.240	    166.67	    37.268
  48.260	     33.33	    16.667
  48.280	     58.33	    22.048
  48.300	     91.67	    27.639
  48.320	     83.33	    26.352
  48.340	    108.33	    30.046
  48.360	     91.67	    27.639
  48.380	    108.33	    30.046
  48.400	    133.33	    33.333
  48.420	     58.33	    22.048
  48.440	    166.67	    37.268
  48.460	     83.33	    26.352
  48.480	    116.67	    31.180
  48.500	    183.33	    39.087
  48.520	    100.00	    28.868
  48.540	    183.33	    39.087
  48.560	    108.33	    30.046
  48.580	     75.00	    25.000
  48.600	    158.33	    36.324
  48.620	     91.67	    27.639
  48.640	    108.33	    30.046
  48.660	     66.67	    23.570
  48.680	     75.00	    25.000
  48.700	     66.67	    23.570
  48.720	     66.67	    23.570
  48.740	     91.67	    27.639
  48.760	     91.67	    27.639
  48.780	     41.67	    18.634
  48.800	     75.00	    25.000
  48.820	     66.67	    23.570
  48.840	     91.67	    27.639
  48.860	     58.33	    22.048
  48.880	     91.67	    27.639
  48.900	      8.33	     8.333
  48.920	    100.00	    28.868
  48.940	    100.00	    28.868
  48.960	    100.00	    28.868
  48.980	     41.67	    18.634
  49.000	     50.00	    20.412
  49.020	     91.67	    27.639
  49.040	    141.67	    34.359
  49.060	     91.67	    27.639
  49.080	    125.00	    32.275
  49.100	    108.33	    30.046
  49.120	     66.67	    23.570
  49.140	    100.00	    28.868
  49.160	     41.67	    18.634
  49.180	    116.67	    31.180
  49.200	    116.67	    31.180
  49.220	     66.67	    23.570
  49.240	    116.67	    31.180
  49.260	     75.00	    25.000
  49.280	     75.00	    25.000
  49.300	     66.67	    23.570
  49.320	    100.00	    28.868
  49.340	    125.00	    32.275
  49.360	    125.00	    32.275
  49.380	    108.33	    30.046
  49.400	    100.00	    28.868
  49.420	    116.67	    31.180
  49.440	     66.67	    23.570
  49.460	     83.33	    26.352
  49.480	     50.00	    20.412
  49.500	    108.33	    30.046
  49.520	    133.33	    33.333
  49.540	     83.33	    26.352
  49.560	     75.00	    25.000
  49.580	    116.67	    31.180
  49.600	     41.67	    18.634
  49.620	     75.00	    25.000
  49.640	     33.33	    16.667
  49.660	     91.67	    27.639
  49.680	     58.33	    22.048
  49.700	    125.00	    32.275
  49.720	     66.67	    23.570
  49.740	     75.00	    25.000
  49.760	     83.33	    26.352
  49.780	    100.00	    28.868
  49.800	     75.00	    25.000
  49.820	     66.67	    23.570
  49.840	     83.33	    26.352
  49.860	    116.67	    31.180
  49.880	    100.00	    28.868
  49.900	    116.67	    31.180
  49.920	    125.00	    32.275
  49.940	     50.00	    20.412
  49.960	     75.00	    25.000
  49.980	     58.33	    22.048
  50.000	     91.67	    27.639
  50.020	    141.67	    34.359
  50.040	    100.00	    28.868
  50.060	     91.67	    27.639
  50.080	     50.00	    20.412
  50.100	    108.33	    30.046
  50.120	     83.33	    26.352
  50.140	     66.67	    23.570
  50.160	     91.67	    27.639
  50.180	     58.33	    22.048
  50.200	    108.33	    30.046
  50.220	    125.00	    32.275
  50.240	    108.33	    30.046
  50.260	     83.33	    26.352
  50.280	     83.33	    26.352
  50.300	    116.67	    31.180
  50.320	     75.00	    25.000
  50.340	    100.00	    28.868
  50.360	     50.00	    20.412
  50.380	    108.33	    30.046
  50.400	    100.00	    28.868
  50.420	     58.33	    22.048
  50.440	     66.67	    23.570
  50.460	    116.67	    31.180
  50.480	     50.00	    20.412
  50.500	    125.00	    32.275
  50.520	    100.00	    28.868
  50.540	    108.33	    30.046
  50.560	     91.67	    27.639
  50.580	     83.33	    26.352
  50.600	    108.33	    30.046
  50.620	     58.33	    22.048
  50.640	    108.33	    30.046
  50.660	     50.00	    20.412
  50.680	     66.67	    23.570
  50.700	     75.00	    25.000
  50.720	     75.00	    25.000
  50.740	    108.33	    30.046
  50.760	    100.00	    28.868
  50.780	     75.00	    25.000
  50.800	     66.67	    23.570
  50.820	    116.67	    31.180
  50.840	     83.33	    26.352
  50.860	    116.67	    31.180
  50.880	    125.00	    32.275
  50.900	     66.67	    23.570
  50.920	     58.33	    22.048
  50.940	     50.00	    20.412
  50.960	     50.00	    20.412
  50.980	     58.33	    22.048
  51.000	    116.67	    31.180
  51.020	     91.67	    27.639
  51.040	    133.33	    33.333
  51.060	    100.00	    28.868
  51.080	     58.33	    22.048
  51.100	    108.33	    30.046
  51.120	     83.33	    26.352
  51.140	     66.67	    23.570
  51.160	     83.33	    26.352
  51.180	    108.33	    30.046
  51.200	    141.67	    34.359
  51.220	     41.67	    18.634
  51.240	     58.33	    22.048
  51.260	     91.67	    27.639
  51.280	     75.00	    25.000
  51.300	     50.00	    20.412
  51.320	    108.33	    30.046
  51.340	     91.67	    27.639
  51.360	    100.00	    28.868
  51.380	     83.33	    26.352
  51.400	     66.67	    23.570
  51.420	     83.33	    26.352
  51.440	     75.00	    25.000
  51.460	     91.67	    27.639
  51.480	    133.33	    33.333
  51.500	     75.00	    25.000
  51.520	     75.00	    25.000
  51.540	    100.00	    28.868
  51.560	    100.00	    28.868
  51.580	    108.33	    30.046
  51.600	     91.67	    27.639
  51.620	    125.00	    32.275
  51.640	    100.00	    28.868
  51.660	    116.67	    31.180
  51.680	     83.33	    26.352
  51.700	     66.67	    23.570
  51.720	    100.00	    28.868
  51.740	    116.67	    31.180
  51.760	     58.33	    22.048
  51.780	     58.33	    22.048
  51.800	     58.33	    22.048
  51.820	    133.33	    33.333
  51.840	     91.67	    27.639
  51.860	     83.33	    26.352
  51.880	     50.00	    20.412
  51.900	     33.33	    16.667
  51.920	     91.67	    27.639
  51.940	     50.00	    20.412
  51.960	     91.67	    27.639
  51.980	     75.00	    25.000
  52.000	     41.67	    18.634
  52.020	     66.67	    23.570
  52.040	     91.67	    27.639
  52.060	     66.67	    23.570
  52.080	     75.00	    25.000
  52.100	     75.00	    25.000
  52.120	     75.00	    25.000
  52.140	     83.33	    26.352
  52.160	     75.00	    25.000
  52.180	    108.33	    30.046
  52.200	     83.33	    26.352
  52.220	     33.33	    16.667
  52.240	     91.67	    27.639
  52.260	     75.00	    25.000
  52.280	     58.33	    22.048
  52.300	    108.33	    30.046
  52.320	     75.00	    25.000
  52.340	    100.00	    28.868
  52.360	     75.00	    25.000
  52.380	     75.00	    25.000
  52.400	    100.00	    28.868
  52.420	     91.67	    27.639
  52.440	     58.33	    22.048
  52.460	     83.33	    26.352
  52.480	     75.00	    25.000
  52.500	     66.67	    23.570
  52.520	     83.33	    26.352
  52.540	     75.00	    25.000
  52.560	     50.00	    20.412
  52.580	     50.00	    20.412
  52.600	     75.00	    25.000
  52.620	     83.33	    26.352
  52.640	     83.33	    26.352
  52.660	     83.33	    26.352
  52.680	     75.00	    25.000
  52.700	     75.00	    25.000
  52.720	     83.33	    26.352
  52.740	    108.33	    30.046
  52.760	     58.33	    22.048
  52.780	    100.00	    28.868
  52.800	     83.33	    26.352
  52.820	    100.00	    28.868
  52.840	     50.00	    20.412
  52.860	    125.00	    32.275
  52.880	     41.67	    18.634
  52.900	    116.67	    31.180
  52.920	     66.67	    23.570
  52.940	    141.67	    34.359
  52.960	     75.00	    25.000
  52.980	     66.67	    23.570
  53.000	     91.67	    27.639
  53.020	    116.67	    31.180
  53.040	     91.67	    27.639
  53.060	     75.00	    25.000
  53.080	     50.00	    20.412
  53.100	     66.67	    23.570
  53.120	    116.67	    31.180
  53.140	     91.67	    27.639
  53.160	     91.67	    27.639
  53.180	     58.33	    22.048
  53.200	     75.00	    25.000
  53.220	     66.67	    23.570
  53.240	    100.00	    28.868
  53.260	     50.00	    20.412
  53.280	     75.00	    25.000
  53.300	     66.67	    23.570
  53.320	     58.33	    22.048
  53.340	    100.00	    28.868
  53.360	     83.33	    26.352
  53.380	     66.67	    23.570
  53.400	     58.33	    22.048
  53.420	     25.00	    14.434
  53.440	     41.67	    18.634
  53.460	     50.00	    20.412
  53.480	     41.67	    18.634
  53.500	     75.00	    25.000
  53.520	     83.33	    26.352
  53.540	     58.33	    22.048
  53.560	     83.33	    26.352
  53.580	     58.33	    22.048
  53.600	    116.67	    31.180
  53.620	     91.67	    27.639
  53.640	    133.33	    33.333
  53.660	    125.00	    32.275
  53.680	     75.00	    25.000
  53.700	     91.67	    27.639
  53.720	     41.67	    18.634
  53.740	    125.00	    32.275
  53.760	     91.67	    27.639
  53.780	     83.33	    26.352
  53.800	     83.33	    26.352
  53.820	     33.33	    16.667
  53.840	     83.33	    26.352
  53.860	     58.33	    22.048
  53.880	     91.67	    27.639
  53.900	     75.00	    25.000
  53.920	     91.67	    27.639
  53.940	    100.00	    28.868
  53.960	     83.33	    26.352
  53.980	     58.33	    22.048
  54.000	     91.67	    27.639
  54.020	     66.67	    23.570
  54.040	     83.33	    26.352
  54.060	    116.67	    31.180
  54.080	     83.33	    26.352
  54.100	     75.00	    25.000
  54.120	    100.00	    28.868
  54.140	    116.67	    31.180
  54.160	    100.00	    28.868
  54.180	     75.00	    25.000
  54.200	     50.00	    20.412
  54.220	     66.67	    23.570
  54.240	     25.00	    14.434
  54.260	     58.33	    22.048
  54.280	     91.67	    27.639
  54.300	     75.00	    25.000
  54.320	    133.33	    33.333
  54.340	    108.33	    30.046
  54.360	     41.67	    18.634
  54.380	     50.00	    20.412
  54.400	     83.33	    26.352
  54.420	     83.33	    26.352
  54.440	     75.00	    25.000
  54.460	     83.33	    26.352
  54.480	     66.67	    23.570
  54.500	     50.00	    20.412
  54.520	    100.00	    28.868
  54.540	     58.33	    22.048
  54.560	     75.00	    25.000
  54.580	     75.00	    25.000
  54.600	     83.33	    26.352
  54.620	     83.33	    26.352
  54.640	     83.33	    26.352
  54.660	     91.67	    27.639
  54.680	    133.33	    33.333
  54.700	    133.33	    33.333
  54.720	     41.67	    18.634
  54.740	     75.00	    25.000
  54.760	    108.33	    30.046
  54.780	     83.33	    26.352
  54.800	     83.33	    26.352
  54.820	     75.00	    25.000
  54.840	    116.67	    31.180
  54.860	    100.00	    28.868
  54.880	    100.00	    28.868
  54.900	     83.33	    26.352
  54.920	    133.33	    33.333
  54.940	    100.00	    28.868
  54.960	     58.33	    22.048
  54.980	    100.00	    28.868
  55.000	     66.67	    23.570
  55.020	    100.00	    28.868
  55.040	     83.33	    26.352
  55.060	    108.33	    30.046
  55.080	     91.67	    27.639
  55.100	    108.33	    30.046
  55.120	    116.67	    31.180
  55.140	     41.67	    18.634
  55.160	     83.33	    26.352
  55.180	     75.00	    25.000
  55.200	     66.67	    23.570
  55.220	    108.33	    30.046
  55.240	     66.67	    23.570
  55.260	    141.67	    34.359
  55.280	    100.00	    28.868
  55.300	     50.00	    20.412
  55.320	     83.33	    26.352
  55.340	    116.67	    31.180
  55.360	    116.67	    31.180
  55.380	     91.67	    27.639
  55.400	     33.33	    16.667
  55.420	     75.00	    25.000
  55.440	     83.33	    26.352
  55.460	     83.33	    26.352
  55.480	     66.67	    23.570
  55.500	     58.33	    22.048
  55.520	    150.00	    35.355
  55.540	     83.33	    26.352
  55.560	    100.00	    28.868
  55.580	    133.33	    33.333
  55.600	    116.67	    31.180
  55.620	     75.00	    25.000
  55.640	    125.00	    32.275
  55.660	    125.00	    32.275
  55.680	     83.33	    26.352
  55.700	    100.00	    28.868
  55.720	     91.67	    27.639
  55.740	     83.33	    26.352
  55.760	    133.33	    33.333
  55.780	    150.00	    35.355
  55.800	    141.67	    34.359
  55.820	    108.33	    30.046
  55.840	    125.00	    32.275
  55.860	    150.00	    35.355
  55.880	    141.67	    34.359
  55.900	    108.33	    30.046
  55.920	    216.67	    42.492
  55.940	    183.33	    39.087
  55.960	    333.33	    52.705
  55.980	    466.67	    62.361
  56.000	    658.33	    74.068
  56.020	    850.00	    84.163
  56.040	   1041.67	    93.169
  56.060	   1050.00	    93.541
  56.080	   1408.33	   108.333
  56.100	   1358.33	   106.393
  56.120	   1250.00	   102.062
  56.140	   1300.00	   104.083
  56.160	   1091.67	    95.379
  56.180	   1016.67	    92.045
  56.200	    758.33	    79.495
  56.220	    691.67	    75.920
  56.240	    850.00	    84.163
  56.260	    808.33	    82.074
  56.280	    816.67	    82.496
  56.300	    716.67	    77.280
  56.320	    558.33	    68.211
  56.340	    241.67	    44.876
  56.360	    316.67	    51.370
  56.380	    200.00	    40.825
  56.400	    116.67	    31.180
  56.420	    125.00	    32.275
  56.440	    175.00	    38.188
  56.460	    150.00	    35.355
  56.480	    125.00	    32.275
  56.500	    150.00	    35.355
  56.520	    133.33	    33.333
  56.540	     83.33	    26.352
  56.560	    108.33	    30.046
  56.580	    116.67	    31.180
  56.600	     91.67	    27.639
  56.620	     83.33	    26.352
  56.640	     66.67	    23.570
  56.660	     83.33	    26.352
  56.680	     58.33	    22.048
  56.700	    100.00	    28.868
  56.720	    133.33	    33.333
  56.740	    116.67	    31.180
  56.760	     66.67	    23.570
  56.780	     66.67	    23.570
  56.800	     83.33	    26.352
  56.820	     66.67	    23.570
  56.840	     66.67	    23.570
  56.860	     66.67	    23.570
  56.880	     58.33	    22.048
  56.900	     83.33	    26.352
  56.920	    100.00	    28.868
  56.940	     83.33	    26.352
  56.960	     91.67	    27.639
  56.980	    100.00	    28.868
  57.000	     83.33	    26.352
  57.020	     50.00	    20.412
  57.040	     75.00	    25.000
  57.060	    116.67	    31.180
  57.080	     91.67	    27.639
  57.100	    100.00	    28.868
  57.120	     91.67	    27.639
  57.140	    108.33	    30.046
  57.160	     50.00	    20.412
  57.180	     58.33	    22.048
  57.200	     83.33	    26.352
  57.220	     75.00	    25.000
  57.240	    116.67	    31.180
  57.260	     66.67	    23.570
  57.280	    100.00	    28.868
  57.300	     58.33	    22.048
  57.320	     66.67	    23.570
  57.340	     83.33	    26.352
  57.360	     75.00	    25.000
  57.380	    116.67	    31.180
  57.400	     75.00	    25.000
  57.420	     33.33	    16.667
  57.440	     58.33	    22.048
  57.460	     83.33	    26.352
  57.480	     41.67	    18.634
  57.500	     75.00	    25.000
  57.520	    116.67	    31.180
  57.540	     41.67	    18.634
  57.560	     83.33	    26.352
  57.580	     83.33	    26.352
  57.600	     75.00	    25.000
  57.620	    108.33	    30.046
  57.640	     66.67	    23.570
  57.660	     50.00	    20.412
  57.680	    100.00	    28.868
  57.700	     33.33	    16.667
  57.720	    100.00	    28.868
  57.740	     91.67	    27.639
  57.760	     75.00	    25.000
  57.780	     58.33	    22.048
  57.800	     58.33	    22.048
  57.820	     91.67	    27.639
  57.840	     83.33	    26.352
  57.860	     75.00	    25.000
  57.880	     58.33	    22.048
  57.900	     58.33	    22.048
  57.920	     41.67	    18.634
  57.940	     58.33	    22.048
  57.960	    125.00	    32.275
  57.980	    108.33	    30.046
  58.000	    100.00	    28.868
  58.020	     83.33	    26.352
  58.040	    100.00	    28.868
  58.060	     66.67	    23.570
  58.080	     75.00	    25.000
  58.100	     41.67	    18.634
  58.120	     58.33	    22.048
  58.140	     75.00	    25.000
  58.160	    108.33	    30.046
  58.180	     75.00	    25.000
  58.200	     58.33	    22.048
  58.220	    100.00	    28.868
  58.240	     83.33	    26.352
  58.260	    108.33	    30.046
  58.280	     50.00	    20.412
  58.300	      8.33	     8.333
  58.320	     91.67	    27.639
  58.340	     58.33	    22.048
  58.360	     58.33	    22.048
  58.380	     66.67	    23.570
  58.400	     83.33	    26.352
  58.420	    125.00	    32.275
  58.440	     58.33	    22.048
  58.460	     58.33	    22.048
  58.480	     66.67	    23.570
  58.500	     83.33	    26.352
  58.520	     66.67	    23.570
  58.540	    116.67	    31.180
  58.560	    133.33	    33.333
  58.580	     25.00	    14.434
  58.600	     50.00	    20.412
  58.620	     91.67	    27.639
  58.640	     58.33	    22.048
  58.660	     58.33	    22.048
  58.680	     83.33	    26.352
  58.700	     83.33	    26.352
  58.720	    108.33	    30.046
  58.740	     66.67	    23.570
  58.760	     16.67	    11.785
  58.780	     50.00	    20.412
  58.800	     91.67	    27.639
  58.820	     50.00	    20.412
  58.840	     91.67	    27.639
  58.860	    100.00	    28.868
  58.880	     41.67	    18.634
  58.900	     58.33	    22.048
  58.920	     83.33	    26.352
  58.940	     91.67	    27.639
  58.960	     83.33	    26.352
  58.980	     41.67	    18.634
  59.000	     50.00	    20.412
  59.020	     50.00	    20.412
  59.040	     75.00	    25.000
  59.060	     66.67	    23.570
  59.080	     66.67	    23.570
  59.100	    108.33	    30.046
  59.120	     41.67	    18.634
  59.140	     58.33	    22.048
  59.160	     66.67	    23.570
  59.180	     41.67	    18.634
  59.200	     50.00	    20.412
  59.220	     50.00	    20.412
  59.240	     16.67	    11.785
  59.260	     91.67	    27.639
  59.280	     91.67	    27.639
  59.300	     58.33	    22.048
  59.320	     83.33	    26.352
  59.340	     25.00	    14.434
  59.360	     75.00	    25.000
  59.380	     75.00	    25.000
  59.400	     91.67	    27.639
  59.420	     50.00	    20.412
  59.440	     75.00	    25.000
  59.460	     83.33	    26.352
  59.480	     66.67	    23.570
  59.500	     25.00	    14.434
  59.520	    116.67	    31.180
  59.540	     83.33	    26.352
  59.560	     41.67	    18.634
  59.580	     50.00	    20.412
  59.600	     75.00	    25.000
  59.620	    100.00	    28.868
  59.640	     83.33	    26.352
  59.660	     75.00	    25.000
  59.680	     50.00	    20.412
  59.700	     91.67	    27.639
  59.720	     75.00	    25.000
  59.740	     58.33	    22.048
  59.760	     66.67	    23.570
  59.780	     58.33	    22.048
  59.800	     66.67	    23.570
  59.820	     50.00	    20.412
  59.840	     50.00	    20.412
  59.860	     50.00	    20.412
  59.880	     33.33	    16.667
  59.900	     41.67	    18.634
  59.920	     83.33	    26.352
  59.940	     58.33	    22.048
  59.960	     75.00	    25.000
  59.980	     33.33	    16.667
  60.000	     75.00	    25.000
  60.020	    100.00	    28.868
  60.040	     66.67	    23.570
  60.060	    116.67	    31.180
  60.080	     58.33	    22.048
  60.100	     91.67	    27.639
  60.120	    116.67	    31.180
  60.140	    141.67	    34.359
  60.160	     58.33	    22.048
  60.180	     83.33	    26.352
  60.200	    108.33	    30.046
  60.220	     50.00	    20.412
  60.240	     66.67	    23.570
  60.260	    100.00	    28.868
  60.280	     75.00	    25.000
  60.300	     58.33	    22.048
  60.320	     66.67	    23.570
  60.340	     75.00	    25.000
  60.360	     58.33	    22.048
  60.380	     58.33	    22.048
  60.400	     41.67	    18.634
  60.420	     50.00	    20.412
  60.440	     41.67	    18.634
  60.460	     75.00	    25.000
  60.480	     75.00	    25.000
  60.500	     75.00	    25.000
  60.520	     50.00	    20.412
  60.540	     58.33	    22.048
  60.560	     33.33	    16.667
  60.580	     58.33	    22.048
  60.600	     66.67	    23.570
  60.620	     75.00	    25.000
  60.640	     91.67	    27.639
  60.660	     83.33	    26.352
  60.680	     66.67	    23.570
  60.700	     83.33	    26.352
  60.720	    116.67	    31.180
  60.740	     66.67	    23.570
  60.760	     75.00	    25.000
  60.780	     75.00	    25.000
  60.800	    108.33	    30.046
  60.820	    100.00	    28.868
  60.840	     66.67	    23.570
  60.860	     75.00	    25.000
  60.880	     75.00	    25.000
  60.900	     75.00	    25.000
  60.920	     58.33	    22.048
  60.940	    116.67	    31.180
  60.960	    100.00	    28.868
  60.980	     41.67	    18.634
  61.000	     66.67	    23.570
  61.020	     91.67	    27.639
  61.040	     75.00	    25.000
  61.060	     41.67	    18.634
  61.080	    116.67	    31.180
  61.100	     50.00	    20.412
  61.120	     66.67	    23.570
  61.140	     50.00	    20.412
  61.160	     75.00	    25.000
  61.180	    116.67	    31.180
  61.200	     58.33	    22.048
  61.220	     83.33	    26.352
  61.240	     16.67	    11.785
  61.260	     33.33	    16.667
  61.280	     83.33	    26.352
  61.300	     75.00	    25.000
  61.320	     50.00	    20.412
  61.340	     66.67	    23.570
  61.360	     50.00	    20.412
  61.380	     66.67	    23.570
  61.400	     58.33	    22.048
  61.420	     58.33	    22.048
  61.440	    108.33	    30.046
  61.460	     58.33	    22.048
  61.480	     66.67	    23.570
  61.500	     16.67	    11.785
  61.520	     66.67	    23.570
  61.540	     75.00	    25.000
  61.560	     83.33	    26.352
  61.580	     66.67	    23.570
  61.600	     58.33	    22.048
  61.620	    116.67	    31.180
  61.640	     50.00	    20.412
  61.660	     66.67	    23.570
  61.680	    108.33	    30.046
  61.700	     41.67	    18.634
  61.720	     58.33	    22.048
  61.740	     75.00	    25.000
  61.760	     58.33	    22.048
  61.780	    100.00	    28.868
  61.800	     33.33	    16.667
  61.820	     91.67	    27.639
  61.840	     91.67	    27.639
  61.860	     58.33	    22.048
  61.880	     66.67	    23.570
  61.900	     50.00	    20.412
  61.920	     58.33	    22.048
  61.940	     41.67	    18.634
  61.960	     66.67	    23.570
  61.980	     25.00	    14.434
  62.000	     83.33	    26.352
  62.020	     50.00	    20.412
  62.040	     83.33	    26.352
  62.060	     50.00	    20.412
  62.080	     33.33	    16.667
  62.100	     50.00	    20.412
  62.120	     66.67	    23.570
  62.140	    108.33	    30.046
  62.160	     41.67	    18.634
  62.180	     25.00	    14.434
  62.200	     16.67	    11.785
  62.220	     41.67	    18.634
  62.240	     83.33	    26.352
  62.260	     25.00	    14.434
  62.280	     91.67	    27.639
  62.300	     75.00	    25.000
  62.320	     91.67	    27.639
  62.340	     58.33	    22.048
  62.360	     50.00	    20.412
  62.380	     91.67	    27.639
  62.400	     58.33	    22.048
  62.420	     50.00	    20.412
  62.440	     41.67	    18.634
  62.460	     33.33	    16.667
  62.480	    116.67	    31.180
  62.500	     33.33	    16.667
  62.520	     66.67	    23.570
  62.540	     58.33	    22.048
  62.560	     41.67	    18.634
  62.580	     58.33	    22.048
  62.600	     50.00	    20.412
  62.620	     58.33	    22.048
  62.640	     66.67	    23.570
  62.660	     66.67	    23.570
  62.680	     75.00	    25.000
  62.700	     50.00	    20.412
  62.720	     75.00	    25.000
  62.740	     83.33	    26.352
  62.760	     75.00	    25.000
  62.780	      8.33	     8.333
  62.800	     50.00	    20.412
  62.820	     75.00	    25.000
  62.840	     66.67	    23.570
  62.860	     83.33	    26.352
  62.880	     33.33	    16.667
  62.900	     75.00	    25.000
  62.920	     50.00	    20.412
  62.940	     50.00	    20.412
  62.960	     83.33	    26.352
  62.980	     41.67	    18.634
  63.000	    116.67	    31.180
  63.020	     91.67	    27.639
  63.040	     66.67	    23.570
  63.060	     83.33	    26.352
  63.080	     41.67	    18.634
  63.100	     83.33	    26.352
  63.120	     58.33	    22.048
  63.140	     66.67	    23.570
  63.160	     83.33	    26.352
  63.180	    108.33	    30.046
  63.200	     58.33	    22.048
  63.220	     75.00	    25.000
  63.240	    108.33	    30.046
  63.260	     58.33	    22.048
  63.280	     58.33	    22.048
  63.300	     58.33	    22.048
  63.320	     25.00	    14.434
  63.340	     58.33	    22.048
  63.360	     33.33	    16.667
  63.380	    116.67	    31.180
  63.400	     58.33	    22.048
  63.420	    100.00	    28.868
  63.440	     41.67	    18.634
  63.460	     66.67	    23.570
  63.480	     41.67	    18.634
  63.500	     41.67	    18.634
  63.520	     58.33	    22.048
  63.540	     50.00	    20.412
  63.560	     66.67	    23.570
  63.580	     25.00	    14.434
  63.600	    100.00	    28.868
  63.620	     75.00	    25.000
  63.640	     33.33	    16.667
  63.660	     91.67	    27.639
  63.680	     75.00	    25.000
  63.700	     75.00	    25.000
  63.720	     33.33	    16.667
  63.740	     33.33	    16.667
  63.760	     91.67	    27.639
  63.780	     25.00	    14.434
  63.800	     75.00	    25.000
  63.820	     58.33	    22.048
  63.840	     41.67	    18.634
  63.860	     75.00	    25.000
  63.880	     50.00	    20.412
  63.900	      8.33	     8.333
  63.920	     91.67	    27.639
  63.940	    100.00	    28.868
  63.960	     66.67	    23.570
  63.980	     41.67	    18.634
  64.000	     75.00	    25.000
  64.020	     25.00	    14.434
  64.040	     83.33	    26.352
  64.060	    100.00	    28.868
  64.080	     66.67	    23.570
  64.100	     50.00	    20.412
  64.120	     50.00	    20.412
  64.140	     16.67	    11.785
  64.160	     75.00	    25.000
  64.180	     83.33	    26.352
  64.200	    100.00	    28.868
  64.220	     50.00	    20.412
  64.240	    116.67	    31.180
  64.260	     66.67	    23.570
  64.280	     83.33	    26.352
  64.300	     50.00	    20.412
  64.320	     83.33	    26.352
  64.340	     50.00	    20.412
  64.360	     83.33	    26.352
  64.380	     25.00	    14.434
  64.400	     75.00	    25.000
  64.420	     41.67	    18.634
  64.440	     91.67	    27.639
  64.460	    100.00	    28.868
  64.480	     66.67	    23.570
  64.500	     75.00	    25.000
  64.520	     75.00	    25.000
  64.540	    133.33	    33.333
  64.560	     91.67	    27.639
  64.580	     91.67	    27.639
  64.600	     50.00	    20.412
  64.620	     41.67	    18.634
  64.640	     58.33	    22.048
  64.660	     83.33	    26.352
  64.680	     75.00	    25.000
  64.700	     33.33	    16.667
  64.720	     91.67	    27.639
  64.740	     50.00	    20.412
  64.760	     58.33	    22.048
  64.780	     75.00	    25.000
  64.800	     50.00	    20.412
  64.820	     83.33	    26.352
  64.840	    116.67	    31.180
  64.860	     16.67	    11.785
  64.880	     33.33	    16.667
  64.900	     91.67	    27.639
  64.920	     58.33	    22.048
  64.940	     83.33	    26.352
  64.960	     41.67	    18.634
  64.980	     58.33	    22.048
  65.000	     66.67	    23.570
  65.020	     91.67	    27.639
  65.040	     41.67	    18.634
  65.060	     58.33	    22.048
  65.080	     58.33	    22.048
  65.100	    108.33	    30.046
  65.120	     91.67	    27.639
  65.140	     75.00	    25.000
  65.160	     58.33	    22.048
  65.180	     58.33	    22.048
  65.200	     75.00	    25.000
  65.220	     33.33	    16.667
  65.240	     91.67	    27.639
  65.260	     16.67	    11.785
  65.280	     66.67	    23.570
  65.300	     83.33	    26.352
  65.320	     58.33	    22.048
  65.340	     33.33	    16.667
  65.360	     33.33	    16.667
  65.380	     83.33	    26.352
  65.400	     41.67	    18.634
  65.420	     41.67	    18.634
  65.440	     83.33	    26.352
  65.460	     33.33	    16.667
  65.480	     41.67	    18.634
  65.500	     91.67	    27.639
  65.520	     66.67	    23.570
  65.540	     16.67	    11.785
  65.560	     75.00	    25.000
  65.580	     25.00	    14.434
  65.600	     91.67	    27.639
  65.620	     58.33	    22.048
  65.640	     91.67	    27.639
  65.660	     33.33	    16.667
  65.680	     50.00	    20.412
  65.700	     91.67	    27.639
  65.720	     83.33	    26.352
  65.740	     58.33	    22.048
  65.760	     66.67	    23.570
  65.780	     58.33	    22.048
  65.800	    100.00	    28.868
  65.820	     33.33	    16.667
  65.840	     75.00	    25.000
  65.860	     33.33	    16.667
  65.880	     50.00	    20.412
  65.900	     75.00	    25.000
  65.920	     83.33	    26.352
  65.940	     83.33	    26.352
  65.960	     75.00	    25.000
  65.980	     41.67	    18.634
  66.000	     75.00	    25.000
  66.020	     33.33	    16.667
  66.040	     25.00	    14.434
  66.060	     41.67	    18.634
  66.080	     66.67	    23.570
  66.100	     25.00	    14.434
  66.120	     33.33	    16.667
  66.140	     41.67	    18.634
  66.160	     33.33	    16.667
  66.180	     41.67	    18.634
  66.200	     75.00	    25.000
  66.220	     58.33	    22.048
  66.240	     41.67	    18.634
  66.260	     50.00	    20.412
  66.280	    108.33	    30.046
  66.300	     50.00	    20.412
  66.320	     41.67	    18.634
  66.340	     66.67	    23.570
  66.360	     91.67	    27.639
  66.380	     83.33	    26.352
  66.400	     66.67	    23.570
  66.420	     33.33	    16.667
  66.440	     25.00	    14.434
  66.460	     58.33	    22.048
  66.480	     75.00	    25.000
  66.500	     58.33	    22.048
  66.520	     75.00	    25.000
  66.540	     66.67	    23.570
  66.560	     91.67	    27.639
  66.580	     58.33	    22.048
  66.600	    108.33	    30.046
  66.620	     58.33	    22.048
  66.640	     41.67	    18.634
  66.660	     41.67	    18.634
  66.680	     66.67	    23.570
  66.700	     58.33	    22.048
  66.720	     66.67	    23.570
  66.740	     83.33	    26.352
  66.760	     83.33	    26.352
  66.780	     91.67	    27.639
  66.800	     33.33	    16.667
  66.820	     83.33	    26.352
  66.840	     75.00	    25.000
  66.860	    100.00	    28.868
  66.880	     83.33	    26.352
  66.900	    108.33	    30.046
  66.920	     66.67	    23.570
  66.940	     83.33	    26.352
  66.960	     50.00	    20.412
  66.980	     66.67	    23.570
  67.000	     83.33	    26.352
  67.020	     91.67	    27.639
  67.040	    108.33	    30.046
  67.060	    116.67	    31.180
  67.080	     58.33	    22.048
  67.100	     91.67	    27.639
  67.120	     50.00	    20.412
  67.140	     41.67	    18.634
  67.160	     50.00	    20.412
  67.180	     33.33	    16.667
  67.200	     83.33	    26.352
  67.220	    133.33	    33.333
  67.240	     50.00	    20.412
  67.260	     66.67	    23.570
  67.280	     91.67	    27.639
  67.300	     58.33	    22.048
  67.320	     58.33	    22.048
  67.340	     50.00	    20.412
  67.360	     50.00	    20.412
  67.380	     83.33	    26.352
  67.400	    108.33	    30.046
  67.420	    125.00	    32.275
  67.440	     75.00	    25.000
  67.460	     25.00	    14.434
  67.480	     50.00	    20.412
  67.500	     41.67	    18.634
  67.520	     58.33	    22.048
  67.540	     75.00	    25.000
  67.560	     91.67	    27.639
  67.580	     50.00	    20.412
  67.600	     83.33	    26.352
  67.620	     58.33	    22.048
  67.640	     58.33	    22.048
  67.660	     41.67	    18.634
  67.680	     50.00	    20.412
  67.700	     33.33	    16.667
  67.720	     75.00	    25.000
  67.740	     50.00	    20.412
  67.760	     41.67	    18.634
  67.780	     58.33	    22.048
  67.800	     83.33	    26.352
  67.820	     66.67	    23.570
  67.840	     50.00	    20.412
  67.860	     75.00	    25.000
  67.880	     58.33	    22.048
  67.900	     50.00	    20.412
  67.920	     91.67	    27.639
  67.940	     58.33	    22.048
  67.960	     75.00	    25.000
  67.980	     50.00	    20.412
  68.000	     33.33	    16.667
  68.020	     50.00	    20.412
  68.040	     50.00	    20.412
  68.060	     75.00	    25.000
  68.080	     50.00	    20.412
  68.100	     83.33	    26.352
  68.120	     75.00	    25.000
  68.140	     41.67	    18.634
  68.160	     50.00	    20.412
  68.180	      8.33	     8.333
  68.200	     33.33	    16.667
  68.220	    108.33	    30.046
  68.240	     33.33	    16.667
  68.260	     58.33	    22.048
  68.280	     66.67	    23.570
  68.300	     58.33	    22.048
  68.320	     41.67	    18.634
  68.340	     33.33	    16.667
  68.360	    100.00	    28.868
  68.380	     75.00	    25.000
  68.400	     66.67	    23.570
  68.420	     83.33	    26.352
  68.440	     58.33	    22.048
  68.460	     41.67	    18.634
  68.480	     25.00	    14.434
  68.500	     41.67	    18.634
  68.520	     83.33	    26.352
  68.540	     75.00	    25.000
  68.560	     83.33	    26.352
  68.580	     50.00	    20.412
  68.600	     75.00	    25.000
  68.620	     50.00	    20.412
  68.640	     58.33	    22.048
  68.660	     66.67	    23.570
  68.680	     58.33	    22.048
  68.700	     75.00	    25.000
  68.720	     83.33	    26.352
  68.740	     50.00	    20.412
  68.760	     66.67	    23.570
  68.780	    108.33	    30.046
  68.800	     83.33	    26.352
  68.820	     58.33	    22.048
  68.840	     58.33	    22.048
  68.860	     83.33	    26.352
  68.880	     41.67	    18.634
  68.900	     50.00	    20.412
  68.920	    133.33	    33.333
  68.940	     83.33	    26.352
  68.960	    158.33	    36.324
  68.980	    133.33	    33.333
  69.000	    125.00	    32.275
  69.020	    241.67	    44.876
  69.040	    200.00	    40.825
  69.060	    291.67	    49.301
  69.080	    316.67	    51.370
  69.100	    366.67	    55.277
  69.120	    341.67	    53.359
  69.140	    200.00	    40.825
  69.160	    191.67	    39.965
  69.180	    166.67	    37.268
  69.200	    191.67	    39.965
  69.220	    158.33	    36.324
  69.240	    208.33	    41.667
  69.260	    225.00	    43.301
  69.280	    216.67	    42.492
  69.300	    175.00	    38.188
  69.320	    108.33	    30.046
  69.340	    150.00	    35.355
  69.360	     91.67	    27.639
  69.380	     83.33	    26.352
  69.400	    133.33	    33.333
  69.420	     66.67	    23.570
  69.440	    116.67	    31.180
  69.460	    100.00	    28.868
  69.480	     50.00	    20.412
  69.500	     66.67	    23.570
  69.520	     58.33	    22.048
  69.540	     66.67	    23.570
  69.560	    100.00	    28.868
  69.580	     41.67	    18.634
  69.600	     83.33	    26.352
  69.620	     75.00	    25.000
  69.640	     75.00	    25.000
  69.660	    108.33	    30.046
  69.680	     83.33	    26.352
  69.700	     58.33	    22.048
  69.720	     50.00	    20.412
  69.740	     75.00	    25.000
  69.760	     50.00	    20.412
  69.780	     83.33	    26.352
  69.800	     33.33	    16.667
  69.820	     50.00	    20.412
  69.840	     66.67	    23.570
  69.860	     58.33	    22.048
  69.880	     33.33	    16.667
  69.900	     66.67	    23.570
  69.920	     58.33	    22.048
  69.940	     41.67	    18.634
  69.960	     50.00	    20.412
  69.980	     58.33	    22.048
  70.000	     50.00	    20.412
  70.020	     66.67	    23.570
  70.040	     83.33	    26.352
  70.060	     58.33	    22.048
  70.080	     75.00	    25.000
  70.100	     83.33	    26.352
  70.120	     41.67	    18.634
  70.140	     33.33	    16.667
  70.160	     66.67	    23.570
  70.180	     66.67	    23.570
  70.200	     66.67	    23.570
  70.220	     66.67	    23.570
  70.240	     75.00	    25.000
  70.260	     41.67	    18.634
  70.280	     41.67	    18.634
  70.300	     41.67	    18.634
  70.320	     50.00	    20.412
  70.340	     33.33	    16.667
  70.360	     50.00	    20.412
  70.380	     66.67	    23.570
  70.400	     33.33	    16.667
  70.420	     25.00	    14.434
  70.440	     58.33	    22.048
  70.460	     50.00	    20.412
  70.480	     91.67	    27.639
  70.500	     33.33	    16.667
  70.520	     33.33	    16.667
  70.540	     75.00	    25.000
  70.560	     83.33	    26.352
  70.580	     83.33	    26.352
  70.600	     25.00	    14.434
  70.620	     83.33	    26.352
  70.640	    100.00	    28.868
  70.660	     66.67	    23.570
  70.680	     16.67	    11.785
  70.700	     83.33	    26.352
  70.720	    108.33	    30.046
  70.740	     75.00	    25.000
  70.760	     58.33	    22.048
  70.780	     50.00	    20.412
  70.800	     33.33	    16.667
  70.820	    108.33	    30.046
  70.840	     66.67	    23.570
  70.860	     41.67	    18.634
  70.880	     50.00	    20.412
  70.900	     83.33	    26.352
  70.920	     33.33	    16.667
  70.940	     91.67	    27.639
  70.960	     33.33	    16.667
  70.980	     33.33	    16.667
  71.000	     33.33	    16.667
  71.020	     33.33	    16.667
  71.040	     25.00	    14.434
  71.060	     66.67	    23.570
  71.080	     75.00	    25.000
  71.100	     33.33	    16.667
  71.120	     75.00	    25.000
  71.140	     66.67	    23.570
  71.160	     33.33	    16.667
  71.180	    100.00	    28.868
  71.200	     33.33	    16.667
  71.220	     25.00	    14.434
  71.240	     50.00	    20.412
  71.260	    100.00	    28.868
  71.280	     33.33	    16.667
  71.300	     33.33	    16.667
  71.320	     50.00	    20.412
  71.340	     58.33	    22.048
  71.360	     16.67	    11.785
  71.380	     41.67	    18.634
  71.400	     41.67	    18.634
  71.420	     91.67	    27.639
  71.440	     91.67	    27.639
  71.460	     25.00	    14.434
  71.480	     50.00	    20.412
  71.500	     66.67	    23.570
  71.520	     41.67	    18.634
  71.540	     33.33	    16.667
  71.560	     50.00	    20.412
  71.580	     58.33	    22.048
  71.600	     58.33	    22.048
  71.620	     33.33	    16.667
  71.640	     58.33	    22.048
  71.660	     33.33	    16.667
  71.680	     50.00	    20.412
  71.700	     41.67	    18.634
  71.720	     41.67	    18.634
  71.740	     91.67	    27.639
  71.760	     75.00	    25.000
  71.780	     50.00	    20.412
  71.800	     66.67	    23.570
  71.820	     83.33	    26.352
  71.840	    108.33	    30.046
  71.860	     58.33	    22.048
  71.880	     25.00	    14.434
  71.900	     41.67	    18.634
  71.920	     66.67	    23.570
  71.940	     83.33	    26.352
  71.960	     33.33	    16.667
  71.980	     66.67	    23.570
  72.000	     41.67	    18.634
  72.020	     66.67	    23.570
  72.040	     41.67	    18.634
  72.060	     41.67	    18.634
  72.080	     75.00	    25.000
  72.100	     41.67	    18.634
  72.120	     25.00	    14.434
  72.140	     50.00	    20.412
  72.160	     66.67	    23.570
  72.180	     41.67	    18.634
  72.200	     50.00	    20.412
  72.220	     58.33	    22.048
  72.240	     41.67	    18.634
  72.260	     66.67	    23.570
  72.280	     33.33	    16.667
  72.300	     50.00	    20.412
  72.320	     33.33	    16.667
  72.340	     66.67	    23.570
  72.360	     33.33	    16.667
  72.380	     66.67	    23.570
  72.400	     50.00	    20.412
  72.420	     41.67	    18.634
  72.440	     41.67	    18.634
  72.460	     58.33	    22.048
  72.480	     66.67	    23.570
  72.500	     58.33	    22.048
  72.520	     33.33	    16.667
  72.540	     66.67	    23.570
  72.560	     33.33	    16.667
  72.580	     41.67	    18.634
  72.600	     50.00	    20.412
  72.620	     41.67	    18.634
  72.640	    108.33	    30.046
  72.660	     41.67	    18.634
  72.680	     50.00	    20.412
  72.700	     41.67	    18.634
  72.720	     25.00	    14.434
  72.740	     41.67	    18.634
  72.760	     41.67	    18.634
  72.780	     75.00	    25.000
  72.800	     58.33	    22.048
  72.820	     75.00	    25.000
  72.840	     25.00	    14.434
  72.860	     66.67	    23.570
  72.880	     33.33	    16.667
  72.900	     66.67	    23.570
  72.920	     33.33	    16.667
  72.940	     66.67	    23.570
  72.960	     66.67	    23.570
  72.980	     33.33	    16.667
  73.000	     66.67	    23.570
  73.020	     83.33	    26.352
  73.040	     50.00	    20.412
  73.060	     41.67	    18.634
  73.080	     16.67	    11.785
  73.100	     25.00	    14.434
  73.120	     41.67	    18.634
  73.140	     41.67	    18.634
  73.160	     33.33	    16.667
  73.180	     75.00	    25.000
  73.200	     66.67	    23.570
  73.220	     50.00	    20.412
  73.240	     33.33	    16.667
  73.260	     50.00	    20.412
  73.280	     33.33	    16.667
  73.300	     50.00	    20.412
  73.320	     41.67	    18.634
  73.340	     16.67	    11.785
  73.360	     66.67	    23.570
  73.380	     66.67	    23.570
  73.400	     58.33	    22.048
  73.420	     33.33	    16.667
  73.440	     50.00	    20.412
  73.460	     75.00	    25.000
  73.480	     16.67	    11.785
  73.500	     91.67	    27.639
  73.520	     50.00	    20.412
  73.540	     41.67	    18.634
  73.560	     33.33	    16.667
  73.580	     41.67	    18.634
  73.600	     58.33	    22.048
  73.620	     58.33	    22.048
  73.640	     58.33	    22.048
  73.660	     58.33	    22.048
  73.680	     50.00	    20.412
  73.700	     66.67	    23.570
  73.720	     41.67	    18.634
  73.740	     41.67	    18.634
  73.760	     50.00	    20.412
  73.780	     41.67	    18.634
  73.800	     41.67	    18.634
  73.820	     41.67	    18.634
  73.840	     83.33	    26.352
  73.860	     58.33	    22.048
  73.880	     83.33	    26.352
  73.900	     58.33	    22.048
  73.920	     58.33	    22.048
  73.940	     91.67	    27.639
  73.960	     50.00	    20.412
  73.980	     33.33	    16.667
  74.000	     58.33	    22.048
  74.020	     50.00	    20.412
  74.040	     58.33	    22.048
  74.060	     66.67	    23.570
  74.080	     41.67	    18.634
  74.100	     41.67	    18.634
  74.120	     66.67	    23.570
  74.140	     58.33	    22.048
  74.160	     58.33	    22.048
  74.180	     33.33	    16.667
  74.200	     50.00	    20.412
  74.220	     58.33	    22.048
  74.240	    100.00	    28.868
  74.260	     66.67	    23.570
  74.280	     58.33	    22.048
  74.300	     91.67	    27.639
  74.320	     50.00	    20.412
  74.340	     50.00	    20.412
  74.360	     33.33	    16.667
  74.380	      8.33	     8.333
  74.400	     75.00	    25.000
  74.420	     66.67	    23.570
  74.440	     75.00	    25.000
  74.460	     50.00	    20.412
  74.480	     50.00	    20.412
  74.500	     66.67	    23.570
  74.520	     25.00	    14.434
  74.540	     25.00	    14.434
  74.560	     25.00	    14.434
  74.580	     75.00	    25.000
  74.600	     66.67	    23.570
  74.620	     58.33	    22.048
  74.640	     66.67	    23.570
  74.660	     41.67	    18.634
  74.680	     75.00	    25.000
  74.700	     41.67	    18.634
  74.720	     75.00	    25.000
  74.740	     83.33	    26.352
  74.760	     41.67	    18.634
  74.780	     58.33	    22.048
  74.800	     25.00	    14.434
  74.820	     33.33	    16.667
  74.840	     33.33	    16.667
  74.860	    108.33	    30.046
  74.880	     41.67	    18.634
  74.900	     50.00	    20.412
  74.920	     16.67	    11.785
  74.940	     41.67	    18.634
  74.960	     25.00	    14.434
  74.980	     91.67	    27.639
  75.000	    116.67	    31.180
  75.020	     41.67	    18.634
  75.040	     66.67	    23.570
  75.060	     75.00	    25.000
  75.080	     50.00	    20.412
  75.100	     66.67	    23.570
  75.120	     58.33	    22.048
  75.140	     25.00	    14.434
  75.160	     58.33	    22.048
  75.180	     58.33	    22.048
  75.200	     33.33	    16.667
  75.220	     66.67	    23.570
  75.240	     33.33	    16.667
  75.260	     75.00	    25.000
  75.280	     58.33	    22.048
  75.300	     50.00	    20.412
  75.320	     41.67	    18.634
  75.340	     41.67	    18.634
  75.360	     91.67	    27.639
  75.380	     25.00	    14.434
  75.400	    100.00	    28.868
  75.420	     50.00	    20.412
  75.440	     41.67	    18.634
  75.460	     50.00	    20.412
  75.480	     41.67	    18.634
  75.500	     41.67	    18.634
  75.520	    125.00	    32.275
  75.540	     75.00	    25.000
  75.560	     83.33	    26.352
  75.580	     25.00	    14.434
  75.600	     50.00	    20.412
  75.620	     41.67	    18.634
  75.640	     50.00	    20.412
  75.660	     58.33	    22.048
  75.680	     41.67	    18.634
  75.700	     58.33	    22.048
  75.720	     50.00	    20.412
  75.740	     75.00	    25.000
  75.760	     50.00	    20.412
  75.780	     58.33	    22.048
  75.800	     83.33	    26.352
  75.820	     58.33	    22.048
  75.840	     75.00	    25.000
  75.860	     50.00	    20.412
  75.880	     50.00	    20.412
  75.900	     25.00	    14.434
  75.920	     58.33	    22.048
  75.940	     50.00	    20.412
  75.960	     50.00	    20.412
  75.980	     58.33	    22.048
  76.000	     50.00	    20.412
  76.020	     50.00	    20.412
  76.040	     66.67	    23.570
  76.060	     58.33	    22.048
  76.080	     66.67	    23.570
  76.100	     83.33	    26.352
  76.120	    116.67	    31.180
  76.140	     91.67	    27.639
  76.160	     66.67	    23.570
  76.180	    125.00	    32.275
  76.200	    125.00	    32.275
  76.220	    125.00	    32.275
  76.240	    141.67	    34.359
  76.260	    241.67	    44.876
  76.280	    316.67	    51.370
  76.300	    341.67	    53.359
  76.320	    425.00	    59.512
  76.340	    383.33	    56.519
  76.360	    441.67	    60.668
  76.380	    475.00	    62.915
  76.400	    275.00	    47.871
  76.420	    266.67	    47.140
  76.440	    216.67	    42.492
  76.460	    175.00	    38.188
  76.480	    125.00	    32.275
  76.500	    150.00	    35.355
  76.520	    275.00	    47.871
  76.540	    316.67	    51.370
  76.560	    225.00	    43.301
  76.580	    258.33	    46.398
  76.600	    225.00	    43.301
  76.620	    183.33	    39.087
  76.640	    175.00	    38.188
  76.660	    100.00	    28.868
  76.680	     91.67	    27.639
  76.700	     66.67	    23.570
  76.720	     66.67	    23.570
  76.740	     58.33	    22.048
  76.760	     75.00	    25.000
  76.780	     83.33	    26.352
  76.800	     83.33	    26.352
  76.820	     58.33	    22.048
  76.840	     83.33	    26.352
  76.860	     25.00	    14.434
  76.880	     75.00	    25.000
  76.900	     58.33	    22.048
  76.920	     66.67	    23.570
  76.940	     58.33	    22.048
  76.960	     33.33	    16.667
  76.980	     50.00	    20.412
  77.000	     75.00	    25.000
  77.020	     83.33	    26.352
  77.040	     66.67	    23.570
  77.060	     41.67	    18.634
  77.080	     50.00	    20.412
  77.100	     66.67	    23.570
  77.120	    108.33	    30.046
  77.140	     91.67	    27.639
  77.160	     91.67	    27.639
  77.180	     50.00	    20.412
  77.200	     66.67	    23.570
  77.220	     41.67	    18.634
  77.240	     58.33	    22.048
  77.260	     75.00	    25.000
  77.280	      0.00	     0.000
  77.300	     75.00	    25.000
  77.320	     41.67	    18.634
  77.340	     50.00	    20.412
  77.360	     25.00	    14.434
  77.380	      0.00	     0.000
  77.400	     50.00	    20.412
  77.420	     50.00	    20.412
  77.440	     33.33	    16.667
  77.460	     25.00	    14.434
  77.480	     50.00	    20.412
  77.500	     58.33	    22.048
  77.520	     58.33	    22.048
  77.540	     50.00	    20.412
  77.560	     16.67	    11.785
  77.580	     66.67	    23.570
  77.600	     75.00	    25.000
  77.620	     33.33	    16.667
  77.640	     50.00	    20.412
  77.660	     83.33	    26.352
  77.680	     41.67	    18.634
  77.700	    100.00	    28.868
  77.720	     58.33	    22.048
  77.740	     41.67	    18.634
  77.760	     58.33	    22.048
  77.780	    100.00	    28.868
  77.800	    166.67	    37.268
  77.820	     66.67	    23.570
  77.840	     75.00	    25.000
  77.860	     66.67	    23.570
  77.880	     50.00	    20.412
  77.900	     50.00	    20.412
  77.920	     33.33	    16.667
  77.940	     50.00	    20.412
  77.960	     58.33	    22.048
  77.980	     75.00	    25.000
  78.000	     66.67	    23.570
  78.020	     83.33	    26.352
  78.040	     33.33	    16.667
  78.060	     83.33	    26.352
  78.080	     25.00	    14.434
  78.100	     75.00	    25.000
  78.120	     50.00	    20.412
  78.140	     91.67	    27.639
  78.160	     66.67	    23.570
  78.180	     58.33	    22.048
  78.200	     41.67	    18.634
  78.220	    100.00	    28.868
  78.240	     50.00	    20.412
  78.260	     66.67	    23.570
  78.280	     75.00	    25.000
  78.300	     83.33	    26.352
  78.320	     41.67	    18.634
  78.340	     50.00	    20.412
  78.360	     66.67	    23.570
  78.380	     33.33	    16.667
  78.400	     41.67	    18.634
  78.420	     50.00	    20.412
  78.440	    100.00	    28.868
  78.460	     75.00	    25.000
  78.480	     75.00	    25.000
  78.500	     75.00	    25.000
  78.520	     25.00	    14.434
  78.540	     25.00	    14.434
  78.560	     58.33	    22.048
  78.580	     91.67	    27.639
  78.600	     91.67	    27.639
  78.620	     58.33	    22.048
  78.640	     41.67	    18.634
  78.660	    100.00	    28.868
  78.680	     66.67	    23.570
  78.700	     58.33	    22.048
  78.720	     41.67	    18.634
  78.740	     41.67	    18.634
  78.760	     41.67	    18.634
  78.780	     41.67	    18.634
  78.800	     58.33	    22.048
  78.820	     41.67	    18.634
  78.840	     83.33	    26.352
  78.860	     75.00	    25.000
  78.880	     83.33	    26.352
  78.900	     50.00	    20.412
  78.920	     66.67	    23.570
  78.940	     66.67	    23.570
  78.960	    100.00	    28.868
  78.980	     50.00	    20.412
  79.000	     50.00	    20.412
  79.020	     41.67	    18.634
  79.040	     33.33	    16.667
  79.060	     41.67	    18.634
  79.080	     58.33	    22.048
  79.100	     33.33	    16.667
  79.120	    100.00	    28.868
  79.140	     25.00	    14.434
  79.160	     33.33	    16.667
  79.180	     50.00	    20.412
  79.200	     91.67	    27.639
  79.220	     33.33	    16.667
  79.240	     75.00	    25.000
  79.260	     50.00	    20.412
  79.280	     66.67	    23.570
  79.300	     41.67	    18.634
  79.320	     66.67	    23.570
  79.340	     58.33	    22.048
  79.360	     58.33	    22.048
  79.380	     75.00	    25.000
  79.400	     83.33	    26.352
  79.420	     58.33	    22.048
  79.440	     83.33	    26.352
  79.460	    108.33	    30.046
  79.480	     75.00	    25.000
  79.500	     33.33	    16.667
  79.520	     75.00	    25.000
  79.540	     33.33	    16.667
  79.560	    100.00	    28.868
  79.580	     75.00	    25.000
  79.600	     58.33	    22.048
  79.620	     33.33	    16.667
  79.640	     41.67	    18.634
  79.660	     33.33	    16.667
  79.680	    100.00	    28.868
  79.700	     66.67	    23.570
  79.720	    108.33	    30.046
  79.740	     75.00	    25.000
  79.760	     75.00	    25.000
  79.780	     41.67	    18.634
  79.800	     66.67	    23.570
  79.820	     33.33	    16.667
  79.840	     75.00	    25.000
  79.860	      8.33	     8.333
  79.880	     66.67	    23.570
  79.900	     25.00	    14.434
  79.920	     83.33	    26.352
  79.940	    108.33	    30.046
  79.960	     50.00	    20.412
  79.980	     41.67	    18.634
  80.000	     33.33	    16.667
  80.020	     33.33	    16.667
  80.040	     50.00	    20.412
  80.060	     66.67	    23.570
  80.080	     91.67	    27.639
  80.100	     25.00	    14.434
  80.120	     33.33	    16.667
  80.140	     50.00	    20.412
  80.160	     33.33	    16.667
  80.180	     41.67	    18.634
  80.200	     66.67	    23.570
  80.220	     75.00	    25.000
  80.240	     50.00	    20.412
  80.260	     91.67	    27.639
  80.280	     16.67	    11.785
  80.300	     41.67	    18.634
  80.320	     50.00	    20.412
  80.340	     75.00	    25.000
  80.360	     66.67	    23.570
  80.380	     50.00	    20.412
  80.400	     50.00	    20.412
  80.420	     41.67	    18.634
  80.440	     91.67	    27.639
  80.460	     50.00	    20.412
  80.480	     58.33	    22.048
  80.500	     58.33	    22.048
  80.520	     33.33	    16.667
  80.540	     66.67	    23.570
  80.560	     25.00	    14.434
  80.580	     33.33	    16.667
  80.600	     66.67	    23.570
  80.620	     58.33	    22.048
  80.640	     33.33	    16.667
  80.660	     41.67	    18.634
  80.680	     83.33	    26.352
  80.700	     41.67	    18.634
  80.720	     58.33	    22.048
  80.740	     83.33	    26.352
  80.760	     50.00	    20.412
  80.780	     66.67	    23.570
  80.800	     33.33	    16.667
  80.820	     75.00	    25.000
  80.840	     33.33	    16.667
  80.860	     41.67	    18.634
  80.880	     58.33	    22.048
  80.900	     50.00	    20.412
  80.920	     33.33	    16.667
  80.940	     75.00	    25.000
  80.960	    108.33	    30.046
  80.980	     66.67	    23.570
  81.000	     66.67	    23.570
  81.020	     66.67	    23.570
  81.040	     66.67	    23.570
  81.060	     50.00	    20.412
  81.080	     50.00	    20.412
  81.100	     75.00	    25.000
  81.120	     66.67	    23.570
  81.140	     58.33	    22.048
  81.160	     66.67	    23.570
  81.180	     58.33	    22.048
  81.200	     41.67	    18.634
  81.220	     16.67	    11.785
  81.240	     75.00	    25.000
  81.260	     58.33	    22.048
  81.280	     33.33	    16.667
  81.300	     50.00	    20.412
  81.320	     75.00	    25.000
  81.340	    100.00	    28.868
  81.360	     33.33	    16.667
  81.380	     41.67	    18.634
  81.400	     91.67	    27.639
  81.420	     83.33	    26.352
  81.440	     41.67	    18.634
  81.460	     50.00	    20.412
  81.480	     66.67	    23.570
  81.500	     58.33	    22.048
  81.520	     91.67	    27.639
  81.540	     41.67	    18.634
  81.560	     58.33	    22.048
  81.580	     50.00	    20.412
  81.600	     58.33	    22.048
  81.620	     41.67	    18.634
  81.640	     75.00	    25.000
  81.660	     66.67	    23.570
  81.680	     25.00	    14.434
  81.700	     50.00	    20.412
  81.720	     33.33	    16.667
  81.740	     58.33	    22.048
  81.760	     75.00	    25.000
  81.780	     91.67	    27.639
  81.800	     33.33	    16.667
  81.820	     75.00	    25.000
  81.840	     50.00	    20.412
  81.860	     50.00	    20.412
  81.880	     66.67	    23.570
  81.900	     41.67	    18.634
  81.920	     16.67	    11.785
  81.940	     50.00	    20.412
  81.960	     50.00	    20.412
  81.980	     33.33	    16.667
  82.000	     41.67	    18.634
  82.020	     58.33	    22.048
  82.040	     50.00	    20.412
  82.060	     83.33	    26.352
  82.080	     41.67	    18.634
  82.100	     41.67	    18.634
  82.120	     33.33	    16.667
  82.140	     33.33	    16.667
  82.160	      8.33	     8.333
  82.180	     33.33	    16.667
  82.200	     50.00	    20.412
  82.220	     91.67	    27.639
  82.240	     66.67	    23.570
  82.260	     41.67	    18.634
  82.280	     75.00	    25.000
  82.300	     41.67	    18.634
  82.320	     50.00	    20.412
  82.340	     50.00	    20.412
  82.360	     50.00	    20.412
  82.380	     75.00	    25.000
  82.400	     41.67	    18.634
  82.420	     91.67	    27.639
  82.440	    100.00	    28.868
  82.460	     66.67	    23.570
  82.480	     33.33	    16.667
  82.500	     41.67	    18.634
  82.520	     58.33	    22.048
  82.540	     58.33	    22.048
  82.560	     58.33	    22.048
  82.580	     41.67	    18.634
  82.600	     58.33	    22.048
  82.620	     41.67	    18.634
  82.640	     66.67	    23.570
  82.660	     25.00	    14.434
  82.680	     50.00	    20.412
  82.700	     91.67	    27.639
  82.720	     58.33	    22.048
  82.740	     83.33	    26.352
  82.760	     25.00	    14.434
  82.780	     75.00	    25.000
  82.800	     66.67	    23.570
  82.820	     58.33	    22.048
  82.840	     66.67	    23.570
  82.860	     41.67	    18.634
  82.880	     25.00	    14.434
  82.900	     58.33	    22.048
  82.920	     75.00	    25.000
  82.940	     25.00	    14.434
  82.960	     25.00	    14.434
  82.980	     66.67	    23.570
  83.000	     50.00	    20.412
  83.020	     41.67	    18.634
  83.040	     58.33	    22.048
  83.060	     83.33	    26.352
  83.080	     33.33	    16.667
  83.100	     50.00	    20.412
  83.120	     66.67	    23.570
  83.140	     66.67	    23.570
  83.160	     33.33	    16.667
  83.180	     33.33	    16.667
  83.200	     16.67	    11.785
  83.220	     58.33	    22.048
  83.240	     50.00	    20.412
  83.260	     16.67	    11.785
  83.280	     41.67	    18.634
  83.300	     58.33	    22.048
  83.320	     33.33	    16.667
  83.340	     50.00	    20.412
  83.360	     50.00	    20.412
  83.380	     41.67	    18.634
  83.400	     83.33	    26.352
  83.420	     75.00	    25.000
  83.440	     16.67	    11.785
  83.460	     58.33	    22.048
  83.480	     58.33	    22.048
  83.500	     66.67	    23.570
  83.520	     41.67	    18.634
  83.540	     58.33	    22.048
  83.560	     91.67	    27.639
  83.580	     33.33	    16.667
  83.600	     50.00	    20.412
  83.620	     58.33	    22.048
  83.640	     50.00	    20.412
  83.660	     41.67	    18.634
  83.680	     25.00	    14.434
  83.700	     58.33	    22.048
  83.720	    100.00	    28.868
  83.740	     33.33	    16.667
  83.760	     25.00	    14.434
  83.780	     58.33	    22.048
  83.800	     66.67	    23.570
  83.820	     58.33	    22.048
  83.840	     66.67	    23.570
  83.860	     33.33	    16.667
  83.880	     50.00	    20.412
  83.900	     25.00	    14.434
  83.920	     33.33	    16.667
  83.940	     33.33	    16.667
  83.960	     66.67	    23.570
  83.980	     50.00	    20.412
  84.000	     41.67	    18.634
  84.020	     16.67	    11.785
  84.040	     41.67	    18.634
  84.060	     25.00	    14.434
  84.080	     66.67	    23.570
  84.100	     66.67	    23.570
  84.120	     75.00	    25.000
  84.140	     50.00	    20.412
  84.160	     50.00	    20.412
  84.180	     41.67	    18.634
  84.200	     58.33	    22.048
  84.220	     83.33	    26.352
  84.240	     83.33	    26.352
  84.260	     75.00	    25.000
  84.280	     50.00	    20.412
  84.300	     33.33	    16.667
  84.320	     75.00	    25.000
  84.340	     33.33	    16.667
  84.360	     33.33	    16.667
  84.380	     50.00	    20.412
  84.400	     83.33	    26.352
  84.420	     58.33	    22.048
  84.440	     50.00	    20.412
  84.460	     50.00	    20.412
  84.480	     41.67	    18.634
  84.500	     66.67	    23.570
  84.520	     50.00	    20.412
  84.540	     41.67	    18.634
  84.560	     66.67	    23.570
  84.580	     58.33	    22.048
  84.600	      0.00	     0.000
  84.620	     25.00	    14.434
  84.640	     41.67	    18.634
  84.660	     66.67	    23.570
  84.680	     25.00	    14.434
  84.700	     66.67	    23.570
  84.720	     58.33	    22.048
  84.740	     41.67	    18.634
  84.760	     33.33	    16.667
  84.780	     41.67	    18.634
  84.800	     66.67	    23.570
  84.820	     75.00	    25.000
  84.840	     75.00	    25.000
  84.860	     41.67	    18.634
  84.880	     33.33	    16.667
  84.900	     66.67	    23.570
  84.920	    125.00	    32.275
  84.940	     41.67	    18.634
  84.960	     58.33	    22.048
  84.980	     75.00	    25.000
  85.000	     33.33	    16.667
  85.020	     33.33	    16.667
  85.040	     16.67	    11.785
  85.060	     41.67	    18.634
  85.080	     66.67	    23.570
  85.100	    100.00	    28.868
  85.120	     66.67	    23.570
  85.140	     33.33	    16.667
  85.160	     75.00	    25.000
  85.180	     75.00	    25.000
  85.200	     66.67	    23.570
  85.220	     75.00	    25.000
  85.240	     41.67	    18.634
  85.260	     58.33	    22.048
  85.280	     83.33	    26.352
  85.300	     41.67	    18.634
  85.320	     41.67	    18.634
  85.340	     41.67	    18.634
  85.360	     50.00	    20.412
  85.380	     33.33	    16.667
  85.400	     50.00	    20.412
  85.420	     66.67	    23.570
  85.440	     25.00	    14.434
  85.460	     83.33	    26.352
  85.480	     66.67	    23.570
  85.500	     41.67	    18.634
  85.520	     33.33	    16.667
  85.540	     58.33	    22.048
  85.560	     33.33	    16.667
  85.580	     50.00	    20.412
  85.600	     58.33	    22.048
  85.620	     58.33	    22.048
  85.640	     50.00	    20.412
  85.660	     25.00	    14.434
  85.680	     33.33	    16.667
  85.700	    100.00	    28.868
  85.720	     41.67	    18.634
  85.740	     33.33	    16.667
  85.760	     41.67	    18.634
  85.780	     66.67	    23.570
  85.800	     66.67	    23.570
  85.820	     66.67	    23.570
  85.840	     58.33	    22.048
  85.860	     75.00	    25.000
  85.880	     66.67	    23.570
  85.900	     50.00	    20.412
  85.920	     16.67	    11.785
  85.940	      0.00	     0.000
  85.960	     50.00	    20.412
  85.980	     58.33	    22.048
  86.000	     41.67	    18.634
  86.020	     75.00	    25.000
  86.040	     25.00	    14.434
  86.060	     50.00	    20.412
  86.080	     75.00	    25.000
  86.100	     66.67	    23.570
  86.120	     58.33	    22.048
  86.140	     50.00	    20.412
  86.160	     50.00	    20.412
  86.180	     66.67	    23.570
  86.200	     66.67	    23.570
  86.220	     33.33	    16.667
  86.240	     50.00	    20.412
  86.260	     91.67	    27.639
  86.280	     41.67	    18.634
  86.300	     50.00	    20.412
  86.320	     50.00	    20.412
  86.340	     25.00	    14.434
  86.360	     25.00	    14.434
  86.380	     66.67	    23.570
  86.400	     50.00	    20.412
  86.420	     58.33	    22.048
  86.440	     66.67	    23.570
  86.460	     58.33	    22.048
  86.480	     66.67	    23.570
  86.500	     58.33	    22.048
  86.520	     16.67	    11.785
  86.540	     58.33	    22.048
  86.560	     58.33	    22.048
  86.580	     25.00	    14.434
  86.600	     58.33	    22.048
  86.620	     41.67	    18.634
  86.640	     75.00	    25.000
  86.660	     33.33	    16.667
  86.680	     33.33	    16.667
  86.700	     41.67	    18.634
  86.720	     83.33	    26.352
  86.740	     41.67	    18.634
  86.760	     16.67	    11.785
  86.780	     75.00	    25.000
  86.800	     66.67	    23.570
  86.820	     33.33	    16.667
  86.840	     75.00	    25.000
  86.860	     50.00	    20.412
  86.880	     50.00	    20.412
  86.900	     75.00	    25.000
  86.920	     41.67	    18.634
  86.940	     41.67	    18.634
  86.960	     33.33	    16.667
  86.980	     41.67	    18.634
  87.000	    100.00	    28.868
  87.020	     50.00	    20.412
  87.040	     41.67	    18.634
  87.060	     41.67	    18.634
  87.080	     16.67	    11.785
  87.100	     75.00	    25.000
  87.120	     58.33	    22.048
  87.140	     66.67	    23.570
  87.160	     58.33	    22.048
  87.180	     91.67	    27.639
  87.200	    100.00	    28.868
  87.220	     50.00	    20.412
  87.240	     75.00	    25.000
  87.260	     83.33	    26.352
  87.280	     75.00	    25.000
  87.300	     16.67	    11.785
  87.320	     75.00	    25.000
  87.340	     50.00	    20.412
  87.360	     25.00	    14.434
  87.380	     50.00	    20.412
  87.400	     66.67	    23.570
  87.420	      8.33	     8.333
  87.440	     58.33	    22.048
  87.460	     75.00	    25.000
  87.480	     50.00	    20.412
  87.500	     50.00	    20.412
  87.520	     33.33	    16.667
  87.540	     33.33	    16.667
  87.560	     41.67	    18.634
  87.580	     58.33	    22.048
  87.600	     25.00	    14.434
  87.620	     41.67	    18.634
  87.640	     66.67	    23.570
  87.660	     58.33	    22.048
  87.680	    116.67	    31.180
  87.700	     83.33	    26.352
  87.720	     41.67	    18.634
  87.740	     58.33	    22.048
  87.760	     83.33	    26.352
  87.780	    150.00	    35.355
  87.800	     83.33	    26.352
  87.820	    100.00	    28.868
  87.840	    166.67	    37.268
  87.860	    191.67	    39.965
  87.880	    108.33	    30.046
  87.900	    191.67	    39.965
  87.920	    250.00	    45.644
  87.940	    375.00	    55.902
  87.960	    425.00	    59.512
  87.980	    450.00	    61.237
  88.000	    483.33	    63.465
  88.020	    500.00	    64.550
  88.040	    458.33	    61.802
  88.060	    550.00	    67.700
  88.080	    508.33	    65.085
  88.100	    283.33	    48.591
  88.120	    191.67	    39.965
  88.140	    191.67	    39.965
  88.160	    150.00	    35.355
  88.180	    175.00	    38.188
  88.200	    200.00	    40.825
  88.220	    283.33	    48.591
  88.240	    308.33	    50.690
  88.260	    208.33	    41.667
  88.280	    358.33	    54.645
  88.300	    416.67	    58.926
  88.320	    266.67	    47.140
  88.340	    291.67	    49.301
  88.360	    241.67	    44.876
  88.380	    233.33	    44.096
  88.400	    125.00	    32.275
  88.420	    100.00	    28.868
  88.440	    133.33	    33.333
  88.460	     83.33	    26.352
  88.480	     66.67	    23.570
  88.500	     66.67	    23.570
  88.520	     83.33	    26.352
  88.540	     83.33	    26.352
  88.560	    116.67	    31.180
  88.580	     66.67	    23.570
  88.600	     75.00	    25.000
  88.620	     25.00	    14.434
  88.640	     91.67	    27.639
  88.660	     75.00	    25.000
  88.680	     58.33	    22.048
  88.700	     83.33	    26.352
  88.720	     41.67	    18.634
  88.740	     33.33	    16.667
  88.760	    141.67	    34.359
  88.780	     58.33	    22.048
  88.800	     75.00	    25.000
  88.820	     58.33	    22.048
  88.840	     75.00	    25.000
  88.860	    108.33	    30.046
  88.880	     75.00	    25.000
  88.900	     83.33	    26.352
  88.920	     33.33	    16.667
  88.940	     41.67	    18.634
  88.960	     58.33	    22.048
  88.980	     25.00	    14.434
  89.000	     50.00	    20.412
  89.020	     41.67	    18.634
  89.040	     41.67	    18.634
  89.060	     58.33	    22.048
  89.080	     25.00	    14.434
  89.100	     58.33	    22.048
  89.120	     66.67	    23.570
  89.140	     83.33	    26.352
  89.160	     50.00	    20.412
  89.180	     66.67	    23.570
  89.200	     66.67	    23.570
  89.220	     75.00	    25.000
  89.240	     25.00	    14.434
  89.260	     58.33	    22.048
  89.280	     75.00	    25.000
  89.300	     58.33	    22.048
  89.320	     50.00	    20.412
  89.340	     83.33	    26.352
  89.360	     83.33	    26.352
  89.380	     66.67	    23.570
  89.400	     41.67	    18.634
  89.420	     33.33	    16.667
  89.440	     83.33	    26.352
  89.460	     58.33	    22.048
  89.480	     75.00	    25.000
  89.500	    100.00	    28.868
  89.520	     91.67	    27.639
  89.540	    108.33	    30.046
  89.560	     75.00	    25.000
  89.580	    100.00	    28.868
  89.600	     33.33	    16.667
  89.620	     50.00	    20.412
  89.640	    108.33	    30.046
  89.660	     41.67	    18.634
  89.680	     33.33	    16.667
  89.700	     33.33	    16.667
  89.720	     75.00	    25.000
  89.740	     50.00	    20.412
  89.760	     58.33	    22.048
  89.780	     83.33	    26.352
  89.800	     50.00	    20.412
  89.820	     58.33	    22.048
  89.840	     33.33	    16.667
  89.860	     33.33	    16.667
  89.880	     50.00	    20.412
  89.900	     83.33	    26.352
  89.920	     66.67	    23.570
  89.940	     83.33	    26.352
  89.960	     41.67	    18.634
  89.980	     33.33	    16.667
  90.000	     50.00	    20.412
  90.020	     33.33	    16.667
  90.040	     66.67	    23.570
  90.060	     75.00	    25.000
  90.080	     75.00	    25.000
  90.100	     66.67	    23.570
  90.120	     58.33	    22.048
  90.140	     66.67	    23.570
  90.160	     58.33	    22.048
  90.180	    100.00	    28.868
  90.200	     83.33	    26.352
  90.220	     58.33	    22.048
  90.240	     50.00	    20.412
  90.260	     16.67	    11.785
  90.280	     50.00	    20.412
  90.300	     66.67	    23.570
  90.320	     83.33	    26.352
  90.340	     33.33	    16.667
  90.360	     50.00	    20.412
  90.380	     50.00	    20.412
  90.400	     25.00	    14.434
  90.420	     50.00	    20.412
  90.440	     33.33	    16.667
  90.460	     50.00	    20.412
  90.480	     50.00	    20.412
  90.500	     66.67	    23.570
  90.520	     33.33	    16.667
  90.540	     50.00	    20.412
  90.560	     41.67	    18.634
  90.580	     58.33	    22.048
  90.600	     50.00	    20.412
  90.620	     50.00	    20.412
  90.640	     33.33	    16.667
  90.660	     50.00	    20.412
  90.680	     41.67	    18.634
  90.700	     41.67	    18.634
  90.720	    116.67	    31.180
  90.740	     75.00	    25.000
  90.760	     58.33	    22.048
  90.780	     58.33	    22.048
  90.800	     83.33	    26.352
  90.820	     50.00	    20.412
  90.840	     66.67	    23.570
  90.860	     50.00	    20.412
  90.880	     25.00	    14.434
  90.900	     66.67	    23.570
  90.920	     50.00	    20.412
  90.940	     75.00	    25.000
  90.960	     50.00	    20.412
  90.980	     75.00	    25.000
  91.000	     41.67	    18.634
  91.020	     58.33	    22.048
  91.040	     50.00	    20.412
  91.060	     50.00	    20.412
  91.080	     50.00	    20.412
  91.100	     50.00	    20.412
  91.120	     41.67	    18.634
  91.140	     33.33	    16.667
  91.160	    108.33	    30.046
  91.180	     66.67	    23.570
  91.200	    100.00	    28.868
  91.220	     66.67	    23.570
  91.240	     50.00	    20.412
  91.260	     41.67	    18.634
  91.280	     75.00	    25.000
  91.300	     50.00	    20.412
  91.320	     50.00	    20.412
  91.340	     33.33	    16.667
  91.360	     33.33	    16.667
  91.380	     50.00	    20.412
  91.400	     25.00	    14.434
  91.420	     66.67	    23.570
  91.440	     33.33	    16.667
  91.460	     41.67	    18.634
  91.480	     16.67	    11.785
  91.500	     83.33	    26.352
  91.520	     58.33	    22.048
  91.540	     25.00	    14.434
  91.560	     25.00	    14.434
  91.580	     50.00	    20.412
  91.600	     75.00	    25.000
  91.620	     41.67	    18.634
  91.640	     58.33	    22.048
  91.660	     83.33	    26.352
  91.680	     75.00	    25.000
  91.700	     66.67	    23.570
  91.720	     91.67	    27.639
  91.740	    100.00	    28.868
  91.760	     91.67	    27.639
  91.780	     50.00	    20.412
  91.800	     66.67	    23.570
  91.820	     58.33	    22.048
  91.840	     41.67	    18.634
  91.860	    116.67	    31.180
  91.880	    100.00	    28.868
  91.900	     25.00	    14.434
  91.920	     33.33	    16.667
  91.940	     83.33	    26.352
  91.960	     50.00	    20.412
  91.980	     58.33	    22.048
  92.000	     83.33	    26.352
  92.020	     75.00	    25.000
  92.040	     75.00	    25.000
  92.060	     58.33	    22.048
  92.080	     75.00	    25.000
  92.100	     25.00	    14.434
  92.120	     16.67	    11.785
  92.140	     33.33	    16.667
  92.160	     58.33	    22.048
  92.180	     58.33	    22.048
  92.200	     83.33	    26.352
  92.220	      8.33	     8.333
  92.240	    100.00	    28.868
  92.260	     66.67	    23.570
  92.280	     41.67	    18.634
  92.300	     41.67	    18.634
  92.320	     33.33	    16.667
  92.340	     58.33	    22.048
  92.360	     50.00	    20.412
  92.380	     50.00	    20.412
  92.400	     75.00	    25.000
  92.420	     58.33	    22.048
  92.440	     58.33	    22.048
  92.460	     25.00	    14.434
  92.480	     58.33	    22.048
  92.500	     66.67	    23.570
  92.520	     41.67	    18.634
  92.540	     33.33	    16.667
  92.560	     58.33	    22.048
  92.580	     66.67	    23.570
  92.600	     66.67	    23.570
  92.620	     50.00	    20.412
  92.640	     41.67	    18.634
  92.660	     16.67	    11.785
  92.680	     58.33	    22.048
  92.700	     58.33	    22.048
  92.720	     66.67	    23.570
  92.740	     83.33	    26.352
  92.760	     41.67	    18.634
  92.780	     50.00	    20.412
  92.800	     66.67	    23.570
  92.820	     50.00	    20.412
  92.840	     66.67	    23.570
  92.860	     50.00	    20.412
  92.880	     50.00	    20.412
  92.900	     33.33	    16.667
  92.920	     66.67	    23.570
  92.940	     41.67	    18.634
  92.960	      8.33	     8.333
  92.980	     58.33	    22.048
  93.000	     66.67	    23.570
  93.020	     83.33	    26.352
  93.040	     91.67	    27.639
  93.060	     50.00	    20.412
  93.080	     33.33	    16.667
  93.100	     83.33	    26.352
  93.120	     75.00	    25.000
  93.140	     16.67	    11.785
  93.160	     33.33	    16.667
  93.180	     66.67	    23.570
  93.200	     83.33	    26.352
  93.220	     83.33	    26.352
  93.240	     66.67	    23.570
  93.260	     58.33	    22.048
  93.280	     75.00	    25.000
  93.300	     33.33	    16.667
  93.320	     66.67	    23.570
  93.340	     91.67	    27.639
  93.360	     58.33	    22.048
  93.380	     75.00	    25.000
  93.400	     66.67	    23.570
  93.420	     66.67	    23.570
  93.440	     66.67	    23.570
  93.460	     33.33	    16.667
  93.480	     41.67	    18.634
  93.500	     41.67	    18.634
  93.520	     50.00	    20.412
  93.540	     41.67	    18.634
  93.560	     50.00	    20.412
  93.580	     83.33	    26.352
  93.600	     58.33	    22.048
  93.620	     58.33	    22.048
  93.640	     58.33	    22.048
  93.660	     41.67	    18.634
  93.680	     91.67	    27.639
  93.700	     58.33	    22.048
  93.720	     66.67	    23.570
  93.740	      8.33	     8.333
  93.760	     25.00	    14.434
  93.780	     58.33	    22.048
  93.800	      8.33	     8.333
  93.820	     66.67	    23.570
  93.840	     50.00	    20.412
  93.860	     41.67	    18.634
  93.880	     83.33	    26.352
  93.900	     83.33	    26.352
  93.920	     33.33	    16.667
  93.940	     75.00	    25.000
  93.960	     41.67	    18.634
  93.980	     83.33	    26.352
  94.000	     50.00	    20.412
  94.020	     66.67	    23.570
  94.040	     83.33	    26.352
  94.060	     91.67	    27.639
  94.080	     41.67	    18.634
  94.100	     25.00	    14.434
  94.120	     91.67	    27.639
  94.140	     83.33	    26.352
  94.160	     58.33	    22.048
  94.180	     66.67	    23.570
  94.200	     58.33	    22.048
  94.220	     75.00	    25.000
  94.240	     33.33	    16.667
  94.260	     83.33	    26.352
  94.280	     83.33	    26.352
  94.300	     50.00	    20.412
  94.320	     50.00	    20.412
  94.340	     91.67	    27.639
  94.360	    100.00	    28.868
  94.380	     58.33	    22.048
  94.400	     41.67	    18.634
  94.420	     83.33	    26.352
  94.440	    108.33	    30.046
  94.460	     41.67	    18.634
  94.480	     75.00	    25.000
  94.500	     66.67	    23.570
  94.520	     83.33	    26.352
  94.540	     66.67	    23.570
  94.560	     41.67	    18.634
  94.580	     83.33	    26.352
  94.600	     50.00	    20.412
  94.620	     58.33	    22.048
  94.640	     58.33	    22.048
  94.660	     83.33	    26.352
  94.680	     83.33	    26.352
  94.700	    125.00	    32.275
  94.720	     75.00	    25.000
  94.740	    125.00	    32.275
  94.760	     83.33	    26.352
  94.780	    116.67	    31.180
  94.800	    183.33	    39.087
  94.820	    133.33	    33.333
  94.840	    175.00	    38.188
  94.860	    216.67	    42.492
  94.880	    241.67	    44.876
  94.900	    308.33	    50.690
  94.920	    275.00	    47.871
  94.940	    391.67	    57.130
  94.960	    283.33	    48.591
  94.980	    366.67	    55.277
  95.000	    200.00	    40.825
  95.020	    158.33	    36.324
  95.040	    141.67	    34.359
  95.060	    125.00	    32.275
  95.080	    133.33	    33.333
  95.100	    133.33	    33.333
  95.120	    108.33	    30.046
  95.140	     41.67	    18.634
  95.160	    116.67	    31.180
  95.180	    150.00	    35.355
  95.200	    183.33	    39.087
  95.220	    216.67	    42.492
  95.240	    200.00	    40.825
  95.260	    216.67	    42.492
  95.280	    200.00	    40.825
  95.300	    166.67	    37.268
  95.320	    150.00	    35.355
  95.340	    100.00	    28.868
  95.360	    166.67	    37.268
  95.380	     58.33	    22.048
  95.400	    100.00	    28.868
  95.420	     33.33	    16.667
  95.440	     58.33	    22.048
  95.460	     50.00	    20.412
  95.480	     66.67	    23.570
  95.500	     50.00	    20.412
  95.520	     58.33	    22.048
  95.540	    100.00	    28.868
  95.560	     58.33	    22.048
  95.580	     83.33	    26.352
  95.600	     33.33	    16.667
  95.620	    116.67	    31.180
  95.640	     83.33	    26.352
  95.660	    108.33	    30.046
  95.680	     50.00	    20.412
  95.700	     33.33	    16.667
  95.720	     41.67	    18.634
  95.740	     58.33	    22.048
  95.760	     83.33	    26.352
  95.780	    100.00	    28.868
  95.800	     33.33	    16.667
  95.820	     83.33	    26.352
  95.840	     83.33	    26.352
  95.860	     91.67	    27.639
  95.880	     41.67	    18.634
  95.900	     33.33	    16.667
  95.920	     41.67	    18.634
  95.940	     41.67	    18.634
  95.960	     66.67	    23.570
  95.980	     58.33	    22.048
  96.000	     33.33	    16.667
  96.020	     58.33	    22.048
  96.040	     41.67	    18.634
  96.060	     41.67	    18.634
  96.080	     50.00	    20.412
  96.100	     83.33	    26.352
  96.120	     16.67	    11.785
  96.140	    100.00	    28.868
  96.160	     33.33	    16.667
  96.180	     41.67	    18.634
  96.200	     50.00	    20.412
  96.220	     66.67	    23.570
  96.240	     50.00	    20.412
  96.260	     16.67	    11.785
  96.280	     58.33	    22.048
  96.300	     66.67	    23.570
  96.320	     75.00	    25.000
  96.340	     83.33	    26.352
  96.360	     83.33	    26.352
  96.380	     41.67	    18.634
  96.400	     58.33	    22.048
  96.420	     58.33	    22.048
  96.440	    108.33	    30.046
  96.460	     58.33	    22.048
  96.480	     33.33	    16.667
  96.500	     50.00	    20.412
  96.520	     33.33	    16.667
  96.540	     66.67	    23.570
  96.560	     58.33	    22.048
  96.580	     83.33	    26.352
  96.600	     58.33	    22.048
  96.620	     41.67	    18.634
  96.640	     75.00	    25.000
  96.660	     58.33	    22.048
  96.680	     58.33	    22.048
  96.700	     75.00	    25.000
  96.720	     33.33	    16.667
  96.740	     25.00	    14.434
  96.760	     50.00	    20.412
  96.780	     41.67	    18.634
  96.800	     58.33	    22.048
  96.820	     66.67	    23.570
  96.840	     58.33	    22.048
  96.860	     58.33	    22.048
  96.880	    108.33	    30.046
  96.900	     83.33	    26.352
  96.920	     83.33	    26.352
  96.940	     25.00	    14.434
  96.960	     58.33	    22.048
  96.980	    108.33	    30.046
  97.000	     33.33	    16.667
  97.020	     41.67	    18.634
  97.040	     91.67	    27.639
  97.060	     58.33	    22.048
  97.080	     66.67	    23.570
  97.100	     25.00	    14.434
  97.120	      8.33	     8.333
  97.140	     41.67	    18.634
  97.160	     41.67	    18.634
  97.180	     58.33	    22.048
  97.200	     58.33	    22.048
  97.220	     75.00	    25.000
  97.240	     66.67	    23.570
  97.260	     41.67	    18.634
  97.280	     41.67	    18.634
  97.300	     58.33	    22.048
  97.320	    108.33	    30.046
  97.340	     58.33	    22.048
  97.360	     50.00	    20.412
  97.380	     41.67	    18.634
  97.400	     50.00	    20.412
  97.420	     41.67	    18.634
  97.440	     33.33	    16.667
  97.460	     50.00	    20.412
  97.480	     50.00	    20.412
  97.500	     33.33	    16.667
  97.520	     33.33	    16.667
  97.540	     50.00	    20.412
  97.560	     41.67	    18.634
  97.580	     41.67	    18.634
  97.600	    100.00	    28.868
  97.620	     25.00	    14.434
  97.640	     58.33	    22.048
  97.660	     66.67	    23.570
  97.680	     41.67	    18.634
  97.700	     91.67	    27.639
  97.720	     83.33	    26.352
  97.740	     58.33	    22.048
  97.760	     75.00	    25.000
  97.780	     58.33	    22.048
  97.800	     33.33	    16.667
  97.820	     83.33	    26.352
  97.840	    141.67	    34.359
  97.860	     50.00	    20.412
  97.880	     33.33	    16.667
  97.900	     33.33	    16.667
  97.920	     50.00	    20.412
  97.940	     50.00	    20.412
  97.960	     58.33	    22.048
  97.980	     16.67	    11.785
  98.000	     91.67	    27.639
  98.020	     66.67	    23.570
  98.040	     41.67	    18.634
  98.060	     16.67	    11.785
  98.080	     66.67	    23.570
  98.100	     66.67	    23.570
  98.120	     58.33	    22.048
  98.140	     83.33	    26.352
  98.160	     41.67	    18.634
  98.180	     33.33	    16.667
  98.200	     66.67	    23.570
  98.220	     50.00	    20.412
  98.240	     16.67	    11.785
  98.260	     83.33	    26.352
  98.280	     41.67	    18.634
  98.300	     50.00	    20.412
  98.320	     75.00	    25.000
  98.340	     50.00	    20.412
  98.360	     75.00	    25.000
  98.380	     66.67	    23.570
  98.400	     50.00	    20.412
  98.420	     50.00	    20.412
  98.440	     91.67	    27.639
  98.460	     58.33	    22.048
  98.480	    100.00	    28.868
  98.500	     66.67	    23.570
  98.520	     66.67	    23.570
  98.540	     75.00	    25.000
  98.560	     91.67	    27.639
  98.580	     41.67	    18.634
  98.600	     25.00	    14.434
  98.620	     66.67	    23.570
  98.640	     16.67	    11.785
  98.660	    100.00	    28.868
  98.680	     41.67	    18.634
  98.700	     50.00	    20.412
  98.720	     33.33	    16.667
  98.740	     41.67	    18.634
  98.760	     66.67	    23.570
  98.780	     41.67	    18.634
  98.800	     41.67	    18.634
  98.820	    100.00	    28.868
  98.840	     58.33	    22.048
  98.860	     83.33	    26.352
  98.880	      8.33	     8.333
  98.900	     83.33	    26.352
  98.920	     33.33	    16.667
  98.940	     50.00	    20.412
  98.960	     83.33	    26.352
  98.980	     33.33	    16.667
  99.000	     58.33	    22.048
  99.020	     83.33	    26.352
  99.040	     58.33	    22.048
  99.060	     91.67	    27.639
  99.080	     50.00	    20.412
  99.100	     50.00	    20.412
  99.120	     58.33	    22.048
  99.140	     41.67	    18.634
  99.160	     41.67	    18.634
  99.180	     50.00	    20.412
  99.200	     33.33	    16.667
  99.220	     25.00	    14.434
  99.240	     75.00	    25.000
  99.260	     33.33	    16.667
  99.280	     66.67	    23.570
  99.300	     50.00	    20.412
  99.320	     33.33	    16.667
  99.340	     91.67	    27.639
  99.360	     41.67	    18.634
  99.380	     25.00	    14.434
  99.400	     25.00	    14.434
  99.420	     16.67	    11.785
  99.440	     75.00	    25.000
  99.460	     50.00	    20.412
  99.480	     58.33	    22.048
  99.500	    116.67	    31.180
  99.520	     66.67	    23.570
  99.540	     66.67	    23.570
  99.560	     75.00	    25.000
  99.580	     66.67	    23.570
  99.600	      8.33	     8.333
  99.620	     41.67	    18.634
  99.640	     75.00	    25.000
  99.660	     66.67	    23.570
  99.680	     41.67	    18.634
  99.700	     33.33	    16.667
  99.720	     83.33	    26.352
  99.740	     75.00	    25.000
  99.760	     50.00	    20.412
  99.780	     50.00	    20.412
  99.800	     83.33	    26.352
  99.820	     58.33	    22.048
  99.840	     83.33	    26.352
  99.860	     50.00	    20.412
  99.880	     83.33	    26.352
  99.900	     33.33	    16.667
  99.920	     58.33	    22.048
  99.940	     25.00	    14.434
  99.960	     50.00	    20.412
  99.980	     50.00	    20.412
 100.000	     83.33	    26.352
