         ID: 

    Comment: 

Scan Type: Normal
Start Angle: 5 deg.
Stop Angle: 100 deg.
Num Points: 4751
Step Size: 0.02 deg.
Datafile Res: 1600 
Scan Rate: 10.000000
Scan Mode: Continuous
Wavelength: 1.540562

Diffractometer Optics:
		Detector:
			 Type: Fixed Slits
			 X2 Configuration: No
		Tube: 
			 Type: Fixed Slits
			 X2 Configuration: No


Axis[0]
	 Selected   : no 
	 Iterative  : no 
	 Start Angle: 0.000000 
	 Stop Angle : 0.000000 
	 Step Size  : 0.000000 
	 Oscillating: no 

Axis[1]
	 Selected   : no 
	 Iterative  : no 
	 Start Angle: 0.000000 
	 Stop Angle : 0.000000 
	 Step Size  : 0.000000 
	 Oscillating: no 

Axis[2]
	 Selected   : no 
	 Iterative  : no 
	 Start Angle: 0.000000 
	 Stop Angle : 0.000000 
	 Step Size  : 0.000000 
	 Oscillating: no 

Axis[3]
	 Selected   : no 
	 Iterative  : no 
	 Start Angle: 0.000000 
	 Stop Angle : 0.000000 
	 Step Size  : 0.000000 
	 Oscillating: no 

Axis[4]
	 Selected   : no 
	 Iterative  : no 
	 Start Angle: 0.000000 
	 Stop Angle : 0.000000 
	 Step Size  : 0.000000 
	 Oscillating: no 

Axis[5]
	 Selected   : no 
	 Iterative  : no 
	 Start Angle: 0.000000 
	 Stop Angle : 0.000000 
	 Step Size  : 0.000000 
	 Oscillating: no 

Axis[6]
	 Selected   : no 
	 Iterative  : no 
	 Start Angle: 0.000000 
	 Stop Angle : 0.000000 
	 Step Size  : 0.000000 
	 Oscillating: no 

Axis[7]
	 Selected   : no 
	 Iterative  : no 
	 Start Angle: 0.000000 
	 Stop Angle : 0.000000 
	 Step Size  : 0.000000 
	 Oscillating: no 

Axis[8]
	 Selected   : no 
	 Iterative  : no 
	 Start Angle: 0.000000 
	 Stop Angle : 0.000000 
	 Step Size  : 0.000000 
	 Oscillating: no 

Axis[9]
	 Selected   : no 
	 Iterative  : no 
	 Start Angle: 0.000000 
	 Stop Angle : 0.000000 
	 Step Size  : 0.000000 
	 Oscillating: no 




	   Deg.      CPS  	    ESD   

Range 0
   5.000	    225.00	    43.301
   5.020	    191.67	    39.965
   5.040	    208.33	    41.667
   5.060	    233.33	    44.096
   5.080	    316.67	    51.370
   5.100	    216.67	    42.492
   5.120	    225.00	    43.301
   5.140	    308.33	    50.690
   5.160	    275.00	    47.871
   5.180	    241.67	    44.876
   5.200	    225.00	    43.301
   5.220	    233.33	    44.096
   5.240	    250.00	    45.644
   5.260	    233.33	    44.096
   5.280	    225.00	    43.301
   5.300	    216.67	    42.492
   5.320	    183.33	    39.087
   5.340	    308.33	    50.690
   5.360	    191.67	    39.965
   5.380	    216.67	    42.492
   5.400	    200.00	    40.825
   5.420	    233.33	    44.096
   5.440	    250.00	    45.644
   5.460	    275.00	    47.871
   5.480	    225.00	    43.301
   5.500	    175.00	    38.188
   5.520	    233.33	    44.096
   5.540	    325.00	    52.042
   5.560	    308.33	    50.690
   5.580	    208.33	    41.667
   5.600	    258.33	    46.398
   5.620	    283.33	    48.591
   5.640	    200.00	    40.825
   5.660	    233.33	    44.096
   5.680	    191.67	    39.965
   5.700	    200.00	    40.825
   5.720	    191.67	    39.965
   5.740	    233.33	    44.096
   5.760	    183.33	    39.087
   5.780	    250.00	    45.644
   5.800	    291.67	    49.301
   5.820	    225.00	    43.301
   5.840	    241.67	    44.876
   5.860	    250.00	    45.644
   5.880	    216.67	    42.492
   5.900	    183.33	    39.087
   5.920	    291.67	    49.301
   5.940	    241.67	    44.876
   5.960	    158.33	    36.324
   5.980	    225.00	    43.301
   6.000	    200.00	    40.825
   6.020	    208.33	    41.667
   6.040	    216.67	    42.492
   6.060	    208.33	    41.667
   6.080	    216.67	    42.492
   6.100	    208.33	    41.667
   6.120	    325.00	    52.042
   6.140	    258.33	    46.398
   6.160	    166.67	    37.268
   6.180	    208.33	    41.667
   6.200	    200.00	    40.825
   6.220	    225.00	    43.301
   6.240	    225.00	    43.301
   6.260	    225.00	    43.301
   6.280	    208.33	    41.667
   6.300	    158.33	    36.324
   6.320	    225.00	    43.301
   6.340	    291.67	    49.301
   6.360	    175.00	    38.188
   6.380	    183.33	    39.087
   6.400	    250.00	    45.644
   6.420	    233.33	    44.096
   6.440	    191.67	    39.965
   6.460	    208.33	    41.667
   6.480	    183.33	    39.087
   6.500	    183.33	    39.087
   6.520	    200.00	    40.825
   6.540	    216.67	    42.492
   6.560	    233.33	    44.096
   6.580	    266.67	    47.140
   6.600	    216.67	    42.492
   6.620	    166.67	    37.268
   6.640	    158.33	    36.324
   6.660	    183.33	    39.087
   6.680	    183.33	    39.087
   6.700	    208.33	    41.667
   6.720	    158.33	    36.324
   6.740	    141.67	    34.359
   6.760	    158.33	    36.324
   6.780	    275.00	    47.871
   6.800	    233.33	    44.096
   6.820	    191.67	    39.965
   6.840	    191.67	    39.965
   6.860	    166.67	    37.268
   6.880	    183.33	    39.087
   6.900	    183.33	    39.087
   6.920	    250.00	    45.644
   6.940	    175.00	    38.188
   6.960	    216.67	    42.492
   6.980	    241.67	    44.876
   7.000	    166.67	    37.268
   7.020	    158.33	    36.324
   7.040	    166.67	    37.268
   7.060	    216.67	    42.492
   7.080	    158.33	    36.324
   7.100	    233.33	    44.096
   7.120	    158.33	    36.324
   7.140	    158.33	    36.324
   7.160	    183.33	    39.087
   7.180	    150.00	    35.355
   7.200	    183.33	    39.087
   7.220	    150.00	    35.355
   7.240	    208.33	    41.667
   7.260	    191.67	    39.965
   7.280	    141.67	    34.359
   7.300	    233.33	    44.096
   7.320	    166.67	    37.268
   7.340	    216.67	    42.492
   7.360	    175.00	    38.188
   7.380	    108.33	    30.046
   7.400	    141.67	    34.359
   7.420	    175.00	    38.188
   7.440	    116.67	    31.180
   7.460	    175.00	    38.188
   7.480	    258.33	    46.398
   7.500	    183.33	    39.087
   7.520	    133.33	    33.333
   7.540	    183.33	    39.087
   7.560	    175.00	    38.188
   7.580	    150.00	    35.355
   7.600	    116.67	    31.180
   7.620	    141.67	    34.359
   7.640	    133.33	    33.333
   7.660	    150.00	    35.355
   7.680	    225.00	    43.301
   7.700	    175.00	    38.188
   7.720	    216.67	    42.492
   7.740	    133.33	    33.333
   7.760	     91.67	    27.639
   7.780	    125.00	    32.275
   7.800	    125.00	    32.275
   7.820	    125.00	    32.275
   7.840	    175.00	    38.188
   7.860	    125.00	    32.275
   7.880	    241.67	    44.876
   7.900	    158.33	    36.324
   7.920	    158.33	    36.324
   7.940	    166.67	    37.268
   7.960	    116.67	    31.180
   7.980	    150.00	    35.355
   8.000	    200.00	    40.825
   8.020	    166.67	    37.268
   8.040	    141.67	    34.359
   8.060	    216.67	    42.492
   8.080	    125.00	    32.275
   8.100	    233.33	    44.096
   8.120	    208.33	    41.667
   8.140	    141.67	    34.359
   8.160	    158.33	    36.324
   8.180	    191.67	    39.965
   8.200	    133.33	    33.333
   8.220	    141.67	    34.359
   8.240	     91.67	    27.639
   8.260	    141.67	    34.359
   8.280	    133.33	    33.333
   8.300	    100.00	    28.868
   8.320	    266.67	    47.140
   8.340	    150.00	    35.355
   8.360	    141.67	    34.359
   8.380	    125.00	    32.275
   8.400	    166.67	    37.268
   8.420	    108.33	    30.046
   8.440	    150.00	    35.355
   8.460	    116.67	    31.180
   8.480	    158.33	    36.324
   8.500	    183.33	    39.087
   8.520	    133.33	    33.333
   8.540	    150.00	    35.355
   8.560	    183.33	    39.087
   8.580	    141.67	    34.359
   8.600	    191.67	    39.965
   8.620	    141.67	    34.359
   8.640	    150.00	    35.355
   8.660	    183.33	    39.087
   8.680	    200.00	    40.825
   8.700	    125.00	    32.275
   8.720	    166.67	    37.268
   8.740	    225.00	    43.301
   8.760	    158.33	    36.324
   8.780	    183.33	    39.087
   8.800	    200.00	    40.825
   8.820	    116.67	    31.180
   8.840	    150.00	    35.355
   8.860	    166.67	    37.268
   8.880	    166.67	    37.268
   8.900	    216.67	    42.492
   8.920	    166.67	    37.268
   8.940	    116.67	    31.180
   8.960	    158.33	    36.324
   8.980	    125.00	    32.275
   9.000	    175.00	    38.188
   9.020	    200.00	    40.825
   9.040	    250.00	    45.644
   9.060	    108.33	    30.046
   9.080	    116.67	    31.180
   9.100	    116.67	    31.180
   9.120	    158.33	    36.324
   9.140	    133.33	    33.333
   9.160	    166.67	    37.268
   9.180	    241.67	    44.876
   9.200	    183.33	    39.087
   9.220	    150.00	    35.355
   9.240	    208.33	    41.667
   9.260	    166.67	    37.268
   9.280	    166.67	    37.268
   9.300	    233.33	    44.096
   9.320	    233.33	    44.096
   9.340	    216.67	    42.492
   9.360	    141.67	    34.359
   9.380	    208.33	    41.667
   9.400	    158.33	    36.324
   9.420	    133.33	    33.333
   9.440	    208.33	    41.667
   9.460	    191.67	    39.965
   9.480	    216.67	    42.492
   9.500	    166.67	    37.268
   9.520	    191.67	    39.965
   9.540	    191.67	    39.965
   9.560	    208.33	    41.667
   9.580	    241.67	    44.876
   9.600	    141.67	    34.359
   9.620	    191.67	    39.965
   9.640	    175.00	    38.188
   9.660	    183.33	    39.087
   9.680	     58.33	    22.048
   9.700	    150.00	    35.355
   9.720	    225.00	    43.301
   9.740	    116.67	    31.180
   9.760	    141.67	    34.359
   9.780	    125.00	    32.275
   9.800	    166.67	    37.268
   9.820	    141.67	    34.359
   9.840	    183.33	    39.087
   9.860	    125.00	    32.275
   9.880	    225.00	    43.301
   9.900	    141.67	    34.359
   9.920	    133.33	    33.333
   9.940	    191.67	    39.965
   9.960	    166.67	    37.268
   9.980	    175.00	    38.188
  10.000	    141.67	    34.359
  10.020	    141.67	    34.359
  10.040	    141.67	    34.359
  10.060	    116.67	    31.180
  10.080	    158.33	    36.324
  10.100	    166.67	    37.268
  10.120	    141.67	    34.359
  10.140	    158.33	    36.324
  10.160	    200.00	    40.825
  10.180	    125.00	    32.275
  10.200	    225.00	    43.301
  10.220	    116.67	    31.180
  10.240	    133.33	    33.333
  10.260	    141.67	    34.359
  10.280	    116.67	    31.180
  10.300	    166.67	    37.268
  10.320	    166.67	    37.268
  10.340	    191.67	    39.965
  10.360	    133.33	    33.333
  10.380	    208.33	    41.667
  10.400	    141.67	    34.359
  10.420	    200.00	    40.825
  10.440	    116.67	    31.180
  10.460	    183.33	    39.087
  10.480	     83.33	    26.352
  10.500	    175.00	    38.188
  10.520	    191.67	    39.965
  10.540	    141.67	    34.359
  10.560	    158.33	    36.324
  10.580	    191.67	    39.965
  10.600	    191.67	    39.965
  10.620	    158.33	    36.324
  10.640	    208.33	    41.667
  10.660	    175.00	    38.188
  10.680	    183.33	    39.087
  10.700	    108.33	    30.046
  10.720	    116.67	    31.180
  10.740	    125.00	    32.275
  10.760	    108.33	    30.046
  10.780	    116.67	    31.180
  10.800	    125.00	    32.275
  10.820	    183.33	    39.087
  10.840	    108.33	    30.046
  10.860	    166.67	    37.268
  10.880	    141.67	    34.359
  10.900	    141.67	    34.359
  10.920	    125.00	    32.275
  10.940	    191.67	    39.965
  10.960	    183.33	    39.087
  10.980	    158.33	    36.324
  11.000	     83.33	    26.352
  11.020	    100.00	    28.868
  11.040	    183.33	    39.087
  11.060	    150.00	    35.355
  11.080	    125.00	    32.275
  11.100	    158.33	    36.324
  11.120	    166.67	    37.268
  11.140	    200.00	    40.825
  11.160	    133.33	    33.333
  11.180	    133.33	    33.333
  11.200	    108.33	    30.046
  11.220	    125.00	    32.275
  11.240	    133.33	    33.333
  11.260	    175.00	    38.188
  11.280	    158.33	    36.324
  11.300	    158.33	    36.324
  11.320	    141.67	    34.359
  11.340	    200.00	    40.825
  11.360	    158.33	    36.324
  11.380	    141.67	    34.359
  11.400	    158.33	    36.324
  11.420	     91.67	    27.639
  11.440	    191.67	    39.965
  11.460	    150.00	    35.355
  11.480	    175.00	    38.188
  11.500	    125.00	    32.275
  11.520	    175.00	    38.188
  11.540	    108.33	    30.046
  11.560	    200.00	    40.825
  11.580	    150.00	    35.355
  11.600	    125.00	    32.275
  11.620	    183.33	    39.087
  11.640	    125.00	    32.275
  11.660	    108.33	    30.046
  11.680	    108.33	    30.046
  11.700	    158.33	    36.324
  11.720	    100.00	    28.868
  11.740	    100.00	    28.868
  11.760	    150.00	    35.355
  11.780	    125.00	    32.275
  11.800	     83.33	    26.352
  11.820	    133.33	    33.333
  11.840	    133.33	    33.333
  11.860	    175.00	    38.188
  11.880	    233.33	    44.096
  11.900	    166.67	    37.268
  11.920	    125.00	    32.275
  11.940	    125.00	    32.275
  11.960	    191.67	    39.965
  11.980	    116.67	    31.180
  12.000	    150.00	    35.355
  12.020	    125.00	    32.275
  12.040	    200.00	    40.825
  12.060	    175.00	    38.188
  12.080	     91.67	    27.639
  12.100	    100.00	    28.868
  12.120	    166.67	    37.268
  12.140	    150.00	    35.355
  12.160	    125.00	    32.275
  12.180	    183.33	    39.087
  12.200	    150.00	    35.355
  12.220	    141.67	    34.359
  12.240	    158.33	    36.324
  12.260	     91.67	    27.639
  12.280	    150.00	    35.355
  12.300	    116.67	    31.180
  12.320	    166.67	    37.268
  12.340	    158.33	    36.324
  12.360	    133.33	    33.333
  12.380	    133.33	    33.333
  12.400	    183.33	    39.087
  12.420	    166.67	    37.268
  12.440	    100.00	    28.868
  12.460	    116.67	    31.180
  12.480	    166.67	    37.268
  12.500	    125.00	    32.275
  12.520	    158.33	    36.324
  12.540	    175.00	    38.188
  12.560	    125.00	    32.275
  12.580	    108.33	    30.046
  12.600	    166.67	    37.268
  12.620	    133.33	    33.333
  12.640	    133.33	    33.333
  12.660	    208.33	    41.667
  12.680	    158.33	    36.324
  12.700	    116.67	    31.180
  12.720	    158.33	    36.324
  12.740	     91.67	    27.639
  12.760	    150.00	    35.355
  12.780	    166.67	    37.268
  12.800	    191.67	    39.965
  12.820	    216.67	    42.492
  12.840	    183.33	    39.087
  12.860	    150.00	    35.355
  12.880	    175.00	    38.188
  12.900	    116.67	    31.180
  12.920	    116.67	    31.180
  12.940	    158.33	    36.324
  12.960	    200.00	    40.825
  12.980	    208.33	    41.667
  13.000	    158.33	    36.324
  13.020	    133.33	    33.333
  13.040	    108.33	    30.046
  13.060	    166.67	    37.268
  13.080	    150.00	    35.355
  13.100	    116.67	    31.180
  13.120	    116.67	    31.180
  13.140	    175.00	    38.188
  13.160	    158.33	    36.324
  13.180	    191.67	    39.965
  13.200	    125.00	    32.275
  13.220	     91.67	    27.639
  13.240	    133.33	    33.333
  13.260	    158.33	    36.324
  13.280	    191.67	    39.965
  13.300	    141.67	    34.359
  13.320	    125.00	    32.275
  13.340	    133.33	    33.333
  13.360	    125.00	    32.275
  13.380	    108.33	    30.046
  13.400	    158.33	    36.324
  13.420	    191.67	    39.965
  13.440	    175.00	    38.188
  13.460	     75.00	    25.000
  13.480	    141.67	    34.359
  13.500	    108.33	    30.046
  13.520	    108.33	    30.046
  13.540	    100.00	    28.868
  13.560	    133.33	    33.333
  13.580	    191.67	    39.965
  13.600	    158.33	    36.324
  13.620	    116.67	    31.180
  13.640	    150.00	    35.355
  13.660	    125.00	    32.275
  13.680	    166.67	    37.268
  13.700	    116.67	    31.180
  13.720	    133.33	    33.333
  13.740	    216.67	    42.492
  13.760	    158.33	    36.324
  13.780	    108.33	    30.046
  13.800	    133.33	    33.333
  13.820	    166.67	    37.268
  13.840	    158.33	    36.324
  13.860	    158.33	    36.324
  13.880	    141.67	    34.359
  13.900	    183.33	    39.087
  13.920	    141.67	    34.359
  13.940	    208.33	    41.667
  13.960	    150.00	    35.355
  13.980	    150.00	    35.355
  14.000	    108.33	    30.046
  14.020	    158.33	    36.324
  14.040	    208.33	    41.667
  14.060	    200.00	    40.825
  14.080	    125.00	    32.275
  14.100	    166.67	    37.268
  14.120	    141.67	    34.359
  14.140	    175.00	    38.188
  14.160	    125.00	    32.275
  14.180	    166.67	    37.268
  14.200	    158.33	    36.324
  14.220	    141.67	    34.359
  14.240	    141.67	    34.359
  14.260	    141.67	    34.359
  14.280	    166.67	    37.268
  14.300	    133.33	    33.333
  14.320	    141.67	    34.359
  14.340	    175.00	    38.188
  14.360	    175.00	    38.188
  14.380	    166.67	    37.268
  14.400	    133.33	    33.333
  14.420	    175.00	    38.188
  14.440	    166.67	    37.268
  14.460	    141.67	    34.359
  14.480	    183.33	    39.087
  14.500	    141.67	    34.359
  14.520	    125.00	    32.275
  14.540	    125.00	    32.275
  14.560	    158.33	    36.324
  14.580	    158.33	    36.324
  14.600	    183.33	    39.087
  14.620	    158.33	    36.324
  14.640	    150.00	    35.355
  14.660	     91.67	    27.639
  14.680	    158.33	    36.324
  14.700	    166.67	    37.268
  14.720	    116.67	    31.180
  14.740	    133.33	    33.333
  14.760	    125.00	    32.275
  14.780	    191.67	    39.965
  14.800	    125.00	    32.275
  14.820	    150.00	    35.355
  14.840	    175.00	    38.188
  14.860	    191.67	    39.965
  14.880	    166.67	    37.268
  14.900	     83.33	    26.352
  14.920	    108.33	    30.046
  14.940	    225.00	    43.301
  14.960	    100.00	    28.868
  14.980	    191.67	    39.965
  15.000	    200.00	    40.825
  15.020	    150.00	    35.355
  15.040	    150.00	    35.355
  15.060	    233.33	    44.096
  15.080	    183.33	    39.087
  15.100	    133.33	    33.333
  15.120	    158.33	    36.324
  15.140	    133.33	    33.333
  15.160	    183.33	    39.087
  15.180	    150.00	    35.355
  15.200	    141.67	    34.359
  15.220	     83.33	    26.352
  15.240	    175.00	    38.188
  15.260	    116.67	    31.180
  15.280	    158.33	    36.324
  15.300	    175.00	    38.188
  15.320	    158.33	    36.324
  15.340	    216.67	    42.492
  15.360	    100.00	    28.868
  15.380	    133.33	    33.333
  15.400	    133.33	    33.333
  15.420	    158.33	    36.324
  15.440	    158.33	    36.324
  15.460	    100.00	    28.868
  15.480	    175.00	    38.188
  15.500	    116.67	    31.180
  15.520	    158.33	    36.324
  15.540	    100.00	    28.868
  15.560	    133.33	    33.333
  15.580	    133.33	    33.333
  15.600	    125.00	    32.275
  15.620	    175.00	    38.188
  15.640	    166.67	    37.268
  15.660	    158.33	    36.324
  15.680	    183.33	    39.087
  15.700	    150.00	    35.355
  15.720	    158.33	    36.324
  15.740	    150.00	    35.355
  15.760	     83.33	    26.352
  15.780	    166.67	    37.268
  15.800	    141.67	    34.359
  15.820	     91.67	    27.639
  15.840	    208.33	    41.667
  15.860	    175.00	    38.188
  15.880	    183.33	    39.087
  15.900	    158.33	    36.324
  15.920	    141.67	    34.359
  15.940	    150.00	    35.355
  15.960	    166.67	    37.268
  15.980	     91.67	    27.639
  16.000	    141.67	    34.359
  16.020	    125.00	    32.275
  16.040	    150.00	    35.355
  16.060	    200.00	    40.825
  16.080	    175.00	    38.188
  16.100	    125.00	    32.275
  16.120	    158.33	    36.324
  16.140	    150.00	    35.355
  16.160	    141.67	    34.359
  16.180	    125.00	    32.275
  16.200	    133.33	    33.333
  16.220	    175.00	    38.188
  16.240	    150.00	    35.355
  16.260	    200.00	    40.825
  16.280	    141.67	    34.359
  16.300	    133.33	    33.333
  16.320	    141.67	    34.359
  16.340	    166.67	    37.268
  16.360	    150.00	    35.355
  16.380	    150.00	    35.355
  16.400	    191.67	    39.965
  16.420	    175.00	    38.188
  16.440	    241.67	    44.876
  16.460	    175.00	    38.188
  16.480	    158.33	    36.324
  16.500	    191.67	    39.965
  16.520	    150.00	    35.355
  16.540	    133.33	    33.333
  16.560	    158.33	    36.324
  16.580	    191.67	    39.965
  16.600	    150.00	    35.355
  16.620	    183.33	    39.087
  16.640	    125.00	    32.275
  16.660	    166.67	    37.268
  16.680	    116.67	    31.180
  16.700	    225.00	    43.301
  16.720	    175.00	    38.188
  16.740	    141.67	    34.359
  16.760	    125.00	    32.275
  16.780	    125.00	    32.275
  16.800	    183.33	    39.087
  16.820	    191.67	    39.965
  16.840	    100.00	    28.868
  16.860	    191.67	    39.965
  16.880	    150.00	    35.355
  16.900	    191.67	    39.965
  16.920	    191.67	    39.965
  16.940	    108.33	    30.046
  16.960	    166.67	    37.268
  16.980	    150.00	    35.355
  17.000	    183.33	    39.087
  17.020	    108.33	    30.046
  17.040	    158.33	    36.324
  17.060	     83.33	    26.352
  17.080	    150.00	    35.355
  17.100	    150.00	    35.355
  17.120	    125.00	    32.275
  17.140	    141.67	    34.359
  17.160	    141.67	    34.359
  17.180	    216.67	    42.492
  17.200	    100.00	    28.868
  17.220	    166.67	    37.268
  17.240	    200.00	    40.825
  17.260	    141.67	    34.359
  17.280	    141.67	    34.359
  17.300	    150.00	    35.355
  17.320	    150.00	    35.355
  17.340	    150.00	    35.355
  17.360	    158.33	    36.324
  17.380	    175.00	    38.188
  17.400	    166.67	    37.268
  17.420	    158.33	    36.324
  17.440	    175.00	    38.188
  17.460	    141.67	    34.359
  17.480	    141.67	    34.359
  17.500	    141.67	    34.359
  17.520	    108.33	    30.046
  17.540	    158.33	    36.324
  17.560	    208.33	    41.667
  17.580	    141.67	    34.359
  17.600	    125.00	    32.275
  17.620	    158.33	    36.324
  17.640	    158.33	    36.324
  17.660	    133.33	    33.333
  17.680	    150.00	    35.355
  17.700	    158.33	    36.324
  17.720	    166.67	    37.268
  17.740	    158.33	    36.324
  17.760	    158.33	    36.324
  17.780	    183.33	    39.087
  17.800	    125.00	    32.275
  17.820	    158.33	    36.324
  17.840	    150.00	    35.355
  17.860	    108.33	    30.046
  17.880	    191.67	    39.965
  17.900	    108.33	    30.046
  17.920	    216.67	    42.492
  17.940	    141.67	    34.359
  17.960	    233.33	    44.096
  17.980	    116.67	    31.180
  18.000	    133.33	    33.333
  18.020	    175.00	    38.188
  18.040	    183.33	    39.087
  18.060	    133.33	    33.333
  18.080	    158.33	    36.324
  18.100	    166.67	    37.268
  18.120	    141.67	    34.359
  18.140	    108.33	    30.046
  18.160	    141.67	    34.359
  18.180	    166.67	    37.268
  18.200	    216.67	    42.492
  18.220	     83.33	    26.352
  18.240	    166.67	    37.268
  18.260	    141.67	    34.359
  18.280	    141.67	    34.359
  18.300	    166.67	    37.268
  18.320	    216.67	    42.492
  18.340	    100.00	    28.868
  18.360	    216.67	    42.492
  18.380	    250.00	    45.644
  18.400	    125.00	    32.275
  18.420	    141.67	    34.359
  18.440	    191.67	    39.965
  18.460	    150.00	    35.355
  18.480	    133.33	    33.333
  18.500	    166.67	    37.268
  18.520	    175.00	    38.188
  18.540	    158.33	    36.324
  18.560	    116.67	    31.180
  18.580	    166.67	    37.268
  18.600	    191.67	    39.965
  18.620	    158.33	    36.324
  18.640	    150.00	    35.355
  18.660	    208.33	    41.667
  18.680	    183.33	    39.087
  18.700	     75.00	    25.000
  18.720	    200.00	    40.825
  18.740	    133.33	    33.333
  18.760	    116.67	    31.180
  18.780	    166.67	    37.268
  18.800	    125.00	    32.275
  18.820	    175.00	    38.188
  18.840	    158.33	    36.324
  18.860	    133.33	    33.333
  18.880	    158.33	    36.324
  18.900	    208.33	    41.667
  18.920	    125.00	    32.275
  18.940	    166.67	    37.268
  18.960	    141.67	    34.359
  18.980	    125.00	    32.275
  19.000	    191.67	    39.965
  19.020	    166.67	    37.268
  19.040	    175.00	    38.188
  19.060	    191.67	    39.965
  19.080	    241.67	    44.876
  19.100	    166.67	    37.268
  19.120	    216.67	    42.492
  19.140	    141.67	    34.359
  19.160	    141.67	    34.359
  19.180	    100.00	    28.868
  19.200	    150.00	    35.355
  19.220	    150.00	    35.355
  19.240	    158.33	    36.324
  19.260	    166.67	    37.268
  19.280	    175.00	    38.188
  19.300	    208.33	    41.667
  19.320	    166.67	    37.268
  19.340	    183.33	    39.087
  19.360	    216.67	    42.492
  19.380	    125.00	    32.275
  19.400	    208.33	    41.667
  19.420	    141.67	    34.359
  19.440	    208.33	    41.667
  19.460	    116.67	    31.180
  19.480	    183.33	    39.087
  19.500	    116.67	    31.180
  19.520	    150.00	    35.355
  19.540	    133.33	    33.333
  19.560	    108.33	    30.046
  19.580	    216.67	    42.492
  19.600	    150.00	    35.355
  19.620	    116.67	    31.180
  19.640	    150.00	    35.355
  19.660	    108.33	    30.046
  19.680	    208.33	    41.667
  19.700	    175.00	    38.188
  19.720	    158.33	    36.324
  19.740	    116.67	    31.180
  19.760	    175.00	    38.188
  19.780	    158.33	    36.324
  19.800	    116.67	    31.180
  19.820	    241.67	    44.876
  19.840	    175.00	    38.188
  19.860	    175.00	    38.188
  19.880	    141.67	    34.359
  19.900	    175.00	    38.188
  19.920	    175.00	    38.188
  19.940	    150.00	    35.355
  19.960	    216.67	    42.492
  19.980	    125.00	    32.275
  20.000	    166.67	    37.268
  20.020	    141.67	    34.359
  20.040	    141.67	    34.359
  20.060	    108.33	    30.046
  20.080	    125.00	    32.275
  20.100	    150.00	    35.355
  20.120	    141.67	    34.359
  20.140	    125.00	    32.275
  20.160	     83.33	    26.352
  20.180	    166.67	    37.268
  20.200	    183.33	    39.087
  20.220	    133.33	    33.333
  20.240	    150.00	    35.355
  20.260	    150.00	    35.355
  20.280	    133.33	    33.333
  20.300	    166.67	    37.268
  20.320	    150.00	    35.355
  20.340	    108.33	    30.046
  20.360	    141.67	    34.359
  20.380	    116.67	    31.180
  20.400	     91.67	    27.639
  20.420	    133.33	    33.333
  20.440	    183.33	    39.087
  20.460	    158.33	    36.324
  20.480	    166.67	    37.268
  20.500	    133.33	    33.333
  20.520	    183.33	    39.087
  20.540	    216.67	    42.492
  20.560	     91.67	    27.639
  20.580	    266.67	    47.140
  20.600	    175.00	    38.188
  20.620	    191.67	    39.965
  20.640	    108.33	    30.046
  20.660	    183.33	    39.087
  20.680	    166.67	    37.268
  20.700	    100.00	    28.868
  20.720	    158.33	    36.324
  20.740	    108.33	    30.046
  20.760	    183.33	    39.087
  20.780	    108.33	    30.046
  20.800	    191.67	    39.965
  20.820	    141.67	    34.359
  20.840	    125.00	    32.275
  20.860	    141.67	    34.359
  20.880	    133.33	    33.333
  20.900	    191.67	    39.965
  20.920	    150.00	    35.355
  20.940	    141.67	    34.359
  20.960	     91.67	    27.639
  20.980	    116.67	    31.180
  21.000	    225.00	    43.301
  21.020	    150.00	    35.355
  21.040	    183.33	    39.087
  21.060	    150.00	    35.355
  21.080	    158.33	    36.324
  21.100	    141.67	    34.359
  21.120	    183.33	    39.087
  21.140	    116.67	    31.180
  21.160	    175.00	    38.188
  21.180	    183.33	    39.087
  21.200	    166.67	    37.268
  21.220	    150.00	    35.355
  21.240	    150.00	    35.355
  21.260	    141.67	    34.359
  21.280	    116.67	    31.180
  21.300	    200.00	    40.825
  21.320	    166.67	    37.268
  21.340	    158.33	    36.324
  21.360	    175.00	    38.188
  21.380	    158.33	    36.324
  21.400	    100.00	    28.868
  21.420	    233.33	    44.096
  21.440	    108.33	    30.046
  21.460	    183.33	    39.087
  21.480	    200.00	    40.825
  21.500	    175.00	    38.188
  21.520	    208.33	    41.667
  21.540	    208.33	    41.667
  21.560	    175.00	    38.188
  21.580	    125.00	    32.275
  21.600	    166.67	    37.268
  21.620	    158.33	    36.324
  21.640	    150.00	    35.355
  21.660	    141.67	    34.359
  21.680	    141.67	    34.359
  21.700	    125.00	    32.275
  21.720	    166.67	    37.268
  21.740	    183.33	    39.087
  21.760	    191.67	    39.965
  21.780	    200.00	    40.825
  21.800	    158.33	    36.324
  21.820	    175.00	    38.188
  21.840	    225.00	    43.301
  21.860	    158.33	    36.324
  21.880	    175.00	    38.188
  21.900	    158.33	    36.324
  21.920	    141.67	    34.359
  21.940	    125.00	    32.275
  21.960	    116.67	    31.180
  21.980	    200.00	    40.825
  22.000	    166.67	    37.268
  22.020	    133.33	    33.333
  22.040	    150.00	    35.355
  22.060	    100.00	    28.868
  22.080	    208.33	    41.667
  22.100	    175.00	    38.188
  22.120	    116.67	    31.180
  22.140	    141.67	    34.359
  22.160	    116.67	    31.180
  22.180	    150.00	    35.355
  22.200	    225.00	    43.301
  22.220	    200.00	    40.825
  22.240	    150.00	    35.355
  22.260	    200.00	    40.825
  22.280	    150.00	    35.355
  22.300	    133.33	    33.333
  22.320	    166.67	    37.268
  22.340	    191.67	    39.965
  22.360	    200.00	    40.825
  22.380	    183.33	    39.087
  22.400	    133.33	    33.333
  22.420	    125.00	    32.275
  22.440	    100.00	    28.868
  22.460	    141.67	    34.359
  22.480	    216.67	    42.492
  22.500	    216.67	    42.492
  22.520	    141.67	    34.359
  22.540	    158.33	    36.324
  22.560	    200.00	    40.825
  22.580	    108.33	    30.046
  22.600	    133.33	    33.333
  22.620	    125.00	    32.275
  22.640	    191.67	    39.965
  22.660	    141.67	    34.359
  22.680	    183.33	    39.087
  22.700	    175.00	    38.188
  22.720	    175.00	    38.188
  22.740	    133.33	    33.333
  22.760	    200.00	    40.825
  22.780	    116.67	    31.180
  22.800	    175.00	    38.188
  22.820	    141.67	    34.359
  22.840	    125.00	    32.275
  22.860	    100.00	    28.868
  22.880	    158.33	    36.324
  22.900	    150.00	    35.355
  22.920	     91.67	    27.639
  22.940	     91.67	    27.639
  22.960	    125.00	    32.275
  22.980	    125.00	    32.275
  23.000	     83.33	    26.352
  23.020	    200.00	    40.825
  23.040	    183.33	    39.087
  23.060	     91.67	    27.639
  23.080	    100.00	    28.868
  23.100	    133.33	    33.333
  23.120	    175.00	    38.188
  23.140	    133.33	    33.333
  23.160	    133.33	    33.333
  23.180	    141.67	    34.359
  23.200	    116.67	    31.180
  23.220	    133.33	    33.333
  23.240	    108.33	    30.046
  23.260	    175.00	    38.188
  23.280	    158.33	    36.324
  23.300	    183.33	    39.087
  23.320	     83.33	    26.352
  23.340	    191.67	    39.965
  23.360	    166.67	    37.268
  23.380	    150.00	    35.355
  23.400	    108.33	    30.046
  23.420	    166.67	    37.268
  23.440	    158.33	    36.324
  23.460	     91.67	    27.639
  23.480	    158.33	    36.324
  23.500	     91.67	    27.639
  23.520	     83.33	    26.352
  23.540	    150.00	    35.355
  23.560	    150.00	    35.355
  23.580	    116.67	    31.180
  23.600	    141.67	    34.359
  23.620	    175.00	    38.188
  23.640	    150.00	    35.355
  23.660	    158.33	    36.324
  23.680	    100.00	    28.868
  23.700	    125.00	    32.275
  23.720	    158.33	    36.324
  23.740	    200.00	    40.825
  23.760	    150.00	    35.355
  23.780	    133.33	    33.333
  23.800	    133.33	    33.333
  23.820	    116.67	    31.180
  23.840	    183.33	    39.087
  23.860	    133.33	    33.333
  23.880	    116.67	    31.180
  23.900	     58.33	    22.048
  23.920	    141.67	    34.359
  23.940	    175.00	    38.188
  23.960	    125.00	    32.275
  23.980	    141.67	    34.359
  24.000	    150.00	    35.355
  24.020	    116.67	    31.180
  24.040	    108.33	    30.046
  24.060	     83.33	    26.352
  24.080	    125.00	    32.275
  24.100	    158.33	    36.324
  24.120	    116.67	    31.180
  24.140	    100.00	    28.868
  24.160	    133.33	    33.333
  24.180	    166.67	    37.268
  24.200	    183.33	    39.087
  24.220	     91.67	    27.639
  24.240	    125.00	    32.275
  24.260	    116.67	    31.180
  24.280	    116.67	    31.180
  24.300	    116.67	    31.180
  24.320	    175.00	    38.188
  24.340	    175.00	    38.188
  24.360	    125.00	    32.275
  24.380	     91.67	    27.639
  24.400	    108.33	    30.046
  24.420	    141.67	    34.359
  24.440	    141.67	    34.359
  24.460	    141.67	    34.359
  24.480	    133.33	    33.333
  24.500	    125.00	    32.275
  24.520	    150.00	    35.355
  24.540	    158.33	    36.324
  24.560	    125.00	    32.275
  24.580	    208.33	    41.667
  24.600	    133.33	    33.333
  24.620	    166.67	    37.268
  24.640	     75.00	    25.000
  24.660	     83.33	    26.352
  24.680	    150.00	    35.355
  24.700	    141.67	    34.359
  24.720	    133.33	    33.333
  24.740	    150.00	    35.355
  24.760	    125.00	    32.275
  24.780	    125.00	    32.275
  24.800	    125.00	    32.275
  24.820	    225.00	    43.301
  24.840	    133.33	    33.333
  24.860	    116.67	    31.180
  24.880	    100.00	    28.868
  24.900	    100.00	    28.868
  24.920	    158.33	    36.324
  24.940	    133.33	    33.333
  24.960	    133.33	    33.333
  24.980	    150.00	    35.355
  25.000	    108.33	    30.046
  25.020	    141.67	    34.359
  25.040	    158.33	    36.324
  25.060	    183.33	    39.087
  25.080	     91.67	    27.639
  25.100	    116.67	    31.180
  25.120	    125.00	    32.275
  25.140	    133.33	    33.333
  25.160	    116.67	    31.180
  25.180	    116.67	    31.180
  25.200	     91.67	    27.639
  25.220	    125.00	    32.275
  25.240	    166.67	    37.268
  25.260	    125.00	    32.275
  25.280	     75.00	    25.000
  25.300	    141.67	    34.359
  25.320	    183.33	    39.087
  25.340	     91.67	    27.639
  25.360	    100.00	    28.868
  25.380	    183.33	    39.087
  25.400	    116.67	    31.180
  25.420	    116.67	    31.180
  25.440	    141.67	    34.359
  25.460	    133.33	    33.333
  25.480	    141.67	    34.359
  25.500	    141.67	    34.359
  25.520	    191.67	    39.965
  25.540	    125.00	    32.275
  25.560	    208.33	    41.667
  25.580	    133.33	    33.333
  25.600	    100.00	    28.868
  25.620	    133.33	    33.333
  25.640	    166.67	    37.268
  25.660	    125.00	    32.275
  25.680	    150.00	    35.355
  25.700	    108.33	    30.046
  25.720	    125.00	    32.275
  25.740	    158.33	    36.324
  25.760	     91.67	    27.639
  25.780	    166.67	    37.268
  25.800	     66.67	    23.570
  25.820	    116.67	    31.180
  25.840	    150.00	    35.355
  25.860	    175.00	    38.188
  25.880	    116.67	    31.180
  25.900	     91.67	    27.639
  25.920	     91.67	    27.639
  25.940	    108.33	    30.046
  25.960	    166.67	    37.268
  25.980	    100.00	    28.868
  26.000	    108.33	    30.046
  26.020	    133.33	    33.333
  26.040	    100.00	    28.868
  26.060	    150.00	    35.355
  26.080	    116.67	    31.180
  26.100	    116.67	    31.180
  26.120	     75.00	    25.000
  26.140	    150.00	    35.355
  26.160	    108.33	    30.046
  26.180	    125.00	    32.275
  26.200	    133.33	    33.333
  26.220	    116.67	    31.180
  26.240	     66.67	    23.570
  26.260	     91.67	    27.639
  26.280	     83.33	    26.352
  26.300	    125.00	    32.275
  26.320	    116.67	    31.180
  26.340	    158.33	    36.324
  26.360	     50.00	    20.412
  26.380	    133.33	    33.333
  26.400	    116.67	    31.180
  26.420	     83.33	    26.352
  26.440	    158.33	    36.324
  26.460	    116.67	    31.180
  26.480	     75.00	    25.000
  26.500	     66.67	    23.570
  26.520	     91.67	    27.639
  26.540	     66.67	    23.570
  26.560	    158.33	    36.324
  26.580	    133.33	    33.333
  26.600	    150.00	    35.355
  26.620	     83.33	    26.352
  26.640	    100.00	    28.868
  26.660	    116.67	    31.180
  26.680	    100.00	    28.868
  26.700	     58.33	    22.048
  26.720	     75.00	    25.000
  26.740	    100.00	    28.868
  26.760	     83.33	    26.352
  26.780	    100.00	    28.868
  26.800	    108.33	    30.046
  26.820	    108.33	    30.046
  26.840	    141.67	    34.359
  26.860	    133.33	    33.333
  26.880	    116.67	    31.180
  26.900	    100.00	    28.868
  26.920	    141.67	    34.359
  26.940	    183.33	    39.087
  26.960	    175.00	    38.188
  26.980	    116.67	    31.180
  27.000	    183.33	    39.087
  27.020	     75.00	    25.000
  27.040	     75.00	    25.000
  27.060	     83.33	    26.352
  27.080	    108.33	    30.046
  27.100	    125.00	    32.275
  27.120	    133.33	    33.333
  27.140	    141.67	    34.359
  27.160	     83.33	    26.352
  27.180	    116.67	    31.180
  27.200	    183.33	    39.087
  27.220	    166.67	    37.268
  27.240	    108.33	    30.046
  27.260	    100.00	    28.868
  27.280	    108.33	    30.046
  27.300	    116.67	    31.180
  27.320	    141.67	    34.359
  27.340	    158.33	    36.324
  27.360	     91.67	    27.639
  27.380	    100.00	    28.868
  27.400	    100.00	    28.868
  27.420	    108.33	    30.046
  27.440	     91.67	    27.639
  27.460	    125.00	    32.275
  27.480	     91.67	    27.639
  27.500	     83.33	    26.352
  27.520	    150.00	    35.355
  27.540	    108.33	    30.046
  27.560	     83.33	    26.352
  27.580	    125.00	    32.275
  27.600	    166.67	    37.268
  27.620	    116.67	    31.180
  27.640	    108.33	    30.046
  27.660	    100.00	    28.868
  27.680	     83.33	    26.352
  27.700	    125.00	    32.275
  27.720	     83.33	    26.352
  27.740	    125.00	    32.275
  27.760	    158.33	    36.324
  27.780	    125.00	    32.275
  27.800	     91.67	    27.639
  27.820	    100.00	    28.868
  27.840	     91.67	    27.639
  27.860	     91.67	    27.639
  27.880	    125.00	    32.275
  27.900	    125.00	    32.275
  27.920	    100.00	    28.868
  27.940	    175.00	    38.188
  27.960	     83.33	    26.352
  27.980	    116.67	    31.180
  28.000	     75.00	    25.000
  28.020	    125.00	    32.275
  28.040	    133.33	    33.333
  28.060	     66.67	    23.570
  28.080	    141.67	    34.359
  28.100	     58.33	    22.048
  28.120	     75.00	    25.000
  28.140	    100.00	    28.868
  28.160	     58.33	    22.048
  28.180	    100.00	    28.868
  28.200	     91.67	    27.639
  28.220	     91.67	    27.639
  28.240	    108.33	    30.046
  28.260	     91.67	    27.639
  28.280	     41.67	    18.634
  28.300	    125.00	    32.275
  28.320	     91.67	    27.639
  28.340	     75.00	    25.000
  28.360	    150.00	    35.355
  28.380	    125.00	    32.275
  28.400	     50.00	    20.412
  28.420	     83.33	    26.352
  28.440	     66.67	    23.570
  28.460	    100.00	    28.868
  28.480	    116.67	    31.180
  28.500	    133.33	    33.333
  28.520	     91.67	    27.639
  28.540	    116.67	    31.180
  28.560	     58.33	    22.048
  28.580	     91.67	    27.639
  28.600	    100.00	    28.868
  28.620	    100.00	    28.868
  28.640	    116.67	    31.180
  28.660	    116.67	    31.180
  28.680	     83.33	    26.352
  28.700	    158.33	    36.324
  28.720	     58.33	    22.048
  28.740	    116.67	    31.180
  28.760	    100.00	    28.868
  28.780	    108.33	    30.046
  28.800	    141.67	    34.359
  28.820	    108.33	    30.046
  28.840	     91.67	    27.639
  28.860	     91.67	    27.639
  28.880	    225.00	    43.301
  28.900	     75.00	    25.000
  28.920	     91.67	    27.639
  28.940	    125.00	    32.275
  28.960	     50.00	    20.412
  28.980	     66.67	    23.570
  29.000	     75.00	    25.000
  29.020	    100.00	    28.868
  29.040	    116.67	    31.180
  29.060	     33.33	    16.667
  29.080	     75.00	    25.000
  29.100	     58.33	    22.048
  29.120	    133.33	    33.333
  29.140	     91.67	    27.639
  29.160	     91.67	    27.639
  29.180	     83.33	    26.352
  29.200	     91.67	    27.639
  29.220	    116.67	    31.180
  29.240	    116.67	    31.180
  29.260	    100.00	    28.868
  29.280	    108.33	    30.046
  29.300	    108.33	    30.046
  29.320	    108.33	    30.046
  29.340	    133.33	    33.333
  29.360	     91.67	    27.639
  29.380	    191.67	    39.965
  29.400	     75.00	    25.000
  29.420	    108.33	    30.046
  29.440	     91.67	    27.639
  29.460	    108.33	    30.046
  29.480	     50.00	    20.412
  29.500	     75.00	    25.000
  29.520	    133.33	    33.333
  29.540	     91.67	    27.639
  29.560	    100.00	    28.868
  29.580	     83.33	    26.352
  29.600	    141.67	    34.359
  29.620	     75.00	    25.000
  29.640	     91.67	    27.639
  29.660	     91.67	    27.639
  29.680	     83.33	    26.352
  29.700	    100.00	    28.868
  29.720	     83.33	    26.352
  29.740	     66.67	    23.570
  29.760	     75.00	    25.000
  29.780	     58.33	    22.048
  29.800	     25.00	    14.434
  29.820	    116.67	    31.180
  29.840	     33.33	    16.667
  29.860	    158.33	    36.324
  29.880	    116.67	    31.180
  29.900	     83.33	    26.352
  29.920	     66.67	    23.570
  29.940	     83.33	    26.352
  29.960	     75.00	    25.000
  29.980	    141.67	    34.359
  30.000	    133.33	    33.333
  30.020	    116.67	    31.180
  30.040	    175.00	    38.188
  30.060	    108.33	    30.046
  30.080	     75.00	    25.000
  30.100	    100.00	    28.868
  30.120	     58.33	    22.048
  30.140	     75.00	    25.000
  30.160	     83.33	    26.352
  30.180	     58.33	    22.048
  30.200	     75.00	    25.000
  30.220	    116.67	    31.180
  30.240	    108.33	    30.046
  30.260	     91.67	    27.639
  30.280	     83.33	    26.352
  30.300	    125.00	    32.275
  30.320	    125.00	    32.275
  30.340	     75.00	    25.000
  30.360	     75.00	    25.000
  30.380	     83.33	    26.352
  30.400	    100.00	    28.868
  30.420	     75.00	    25.000
  30.440	    100.00	    28.868
  30.460	    125.00	    32.275
  30.480	     75.00	    25.000
  30.500	    125.00	    32.275
  30.520	     58.33	    22.048
  30.540	     75.00	    25.000
  30.560	    100.00	    28.868
  30.580	    108.33	    30.046
  30.600	     75.00	    25.000
  30.620	     75.00	    25.000
  30.640	     41.67	    18.634
  30.660	     75.00	    25.000
  30.680	    125.00	    32.275
  30.700	     91.67	    27.639
  30.720	     75.00	    25.000
  30.740	    100.00	    28.868
  30.760	     75.00	    25.000
  30.780	    141.67	    34.359
  30.800	     75.00	    25.000
  30.820	     83.33	    26.352
  30.840	     75.00	    25.000
  30.860	    100.00	    28.868
  30.880	     66.67	    23.570
  30.900	    141.67	    34.359
  30.920	     75.00	    25.000
  30.940	     91.67	    27.639
  30.960	     66.67	    23.570
  30.980	     83.33	    26.352
  31.000	     75.00	    25.000
  31.020	    133.33	    33.333
  31.040	     50.00	    20.412
  31.060	     58.33	    22.048
  31.080	     50.00	    20.412
  31.100	    108.33	    30.046
  31.120	     50.00	    20.412
  31.140	     83.33	    26.352
  31.160	    100.00	    28.868
  31.180	    133.33	    33.333
  31.200	     91.67	    27.639
  31.220	    100.00	    28.868
  31.240	    125.00	    32.275
  31.260	    116.67	    31.180
  31.280	    116.67	    31.180
  31.300	    133.33	    33.333
  31.320	    100.00	    28.868
  31.340	    108.33	    30.046
  31.360	    116.67	    31.180
  31.380	    158.33	    36.324
  31.400	     66.67	    23.570
  31.420	     91.67	    27.639
  31.440	     91.67	    27.639
  31.460	    125.00	    32.275
  31.480	    125.00	    32.275
  31.500	     83.33	    26.352
  31.520	     83.33	    26.352
  31.540	    125.00	    32.275
  31.560	     83.33	    26.352
  31.580	     75.00	    25.000
  31.600	    116.67	    31.180
  31.620	    108.33	    30.046
  31.640	     83.33	    26.352
  31.660	     75.00	    25.000
  31.680	     75.00	    25.000
  31.700	    183.33	    39.087
  31.720	     25.00	    14.434
  31.740	    108.33	    30.046
  31.760	    125.00	    32.275
  31.780	     50.00	    20.412
  31.800	     66.67	    23.570
  31.820	     41.67	    18.634
  31.840	     66.67	    23.570
  31.860	    100.00	    28.868
  31.880	     66.67	    23.570
  31.900	     50.00	    20.412
  31.920	     66.67	    23.570
  31.940	    125.00	    32.275
  31.960	     58.33	    22.048
  31.980	     75.00	    25.000
  32.000	    133.33	    33.333
  32.020	    108.33	    30.046
  32.040	     91.67	    27.639
  32.060	     91.67	    27.639
  32.080	     50.00	    20.412
  32.100	    100.00	    28.868
  32.120	    133.33	    33.333
  32.140	     25.00	    14.434
  32.160	    108.33	    30.046
  32.180	     66.67	    23.570
  32.200	    100.00	    28.868
  32.220	     75.00	    25.000
  32.240	     58.33	    22.048
  32.260	     58.33	    22.048
  32.280	     91.67	    27.639
  32.300	     83.33	    26.352
  32.320	     91.67	    27.639
  32.340	     58.33	    22.048
  32.360	    116.67	    31.180
  32.380	     41.67	    18.634
  32.400	     83.33	    26.352
  32.420	     75.00	    25.000
  32.440	     58.33	    22.048
  32.460	    100.00	    28.868
  32.480	    116.67	    31.180
  32.500	     91.67	    27.639
  32.520	     91.67	    27.639
  32.540	    100.00	    28.868
  32.560	     91.67	    27.639
  32.580	     75.00	    25.000
  32.600	    166.67	    37.268
  32.620	     83.33	    26.352
  32.640	     91.67	    27.639
  32.660	     91.67	    27.639
  32.680	     41.67	    18.634
  32.700	     91.67	    27.639
  32.720	     58.33	    22.048
  32.740	     83.33	    26.352
  32.760	     75.00	    25.000
  32.780	     91.67	    27.639
  32.800	     50.00	    20.412
  32.820	     83.33	    26.352
  32.840	    141.67	    34.359
  32.860	     83.33	    26.352
  32.880	     75.00	    25.000
  32.900	    108.33	    30.046
  32.920	     66.67	    23.570
  32.940	     83.33	    26.352
  32.960	    116.67	    31.180
  32.980	    116.67	    31.180
  33.000	    100.00	    28.868
  33.020	     33.33	    16.667
  33.040	     91.67	    27.639
  33.060	     83.33	    26.352
  33.080	     91.67	    27.639
  33.100	    100.00	    28.868
  33.120	    100.00	    28.868
  33.140	     66.67	    23.570
  33.160	     66.67	    23.570
  33.180	     58.33	    22.048
  33.200	    125.00	    32.275
  33.220	    116.67	    31.180
  33.240	     50.00	    20.412
  33.260	    108.33	    30.046
  33.280	     91.67	    27.639
  33.300	     66.67	    23.570
  33.320	    133.33	    33.333
  33.340	    108.33	    30.046
  33.360	    116.67	    31.180
  33.380	     83.33	    26.352
  33.400	    100.00	    28.868
  33.420	     83.33	    26.352
  33.440	     75.00	    25.000
  33.460	    100.00	    28.868
  33.480	     91.67	    27.639
  33.500	     41.67	    18.634
  33.520	     75.00	    25.000
  33.540	    133.33	    33.333
  33.560	     75.00	    25.000
  33.580	    108.33	    30.046
  33.600	    108.33	    30.046
  33.620	    108.33	    30.046
  33.640	    100.00	    28.868
  33.660	     50.00	    20.412
  33.680	     83.33	    26.352
  33.700	    100.00	    28.868
  33.720	    125.00	    32.275
  33.740	     75.00	    25.000
  33.760	     91.67	    27.639
  33.780	    150.00	    35.355
  33.800	     91.67	    27.639
  33.820	     83.33	    26.352
  33.840	     91.67	    27.639
  33.860	    116.67	    31.180
  33.880	     75.00	    25.000
  33.900	     66.67	    23.570
  33.920	     41.67	    18.634
  33.940	    116.67	    31.180
  33.960	    108.33	    30.046
  33.980	    116.67	    31.180
  34.000	     50.00	    20.412
  34.020	     75.00	    25.000
  34.040	    100.00	    28.868
  34.060	    116.67	    31.180
  34.080	     75.00	    25.000
  34.100	     75.00	    25.000
  34.120	     91.67	    27.639
  34.140	     66.67	    23.570
  34.160	     91.67	    27.639
  34.180	     83.33	    26.352
  34.200	     50.00	    20.412
  34.220	     66.67	    23.570
  34.240	     83.33	    26.352
  34.260	     75.00	    25.000
  34.280	     58.33	    22.048
  34.300	     66.67	    23.570
  34.320	     66.67	    23.570
  34.340	     58.33	    22.048
  34.360	     83.33	    26.352
  34.380	     83.33	    26.352
  34.400	     91.67	    27.639
  34.420	    116.67	    31.180
  34.440	     91.67	    27.639
  34.460	     50.00	    20.412
  34.480	     66.67	    23.570
  34.500	     91.67	    27.639
  34.520	    133.33	    33.333
  34.540	     58.33	    22.048
  34.560	     75.00	    25.000
  34.580	     83.33	    26.352
  34.600	    116.67	    31.180
  34.620	     50.00	    20.412
  34.640	    116.67	    31.180
  34.660	     83.33	    26.352
  34.680	    108.33	    30.046
  34.700	     66.67	    23.570
  34.720	     83.33	    26.352
  34.740	    116.67	    31.180
  34.760	     66.67	    23.570
  34.780	    158.33	    36.324
  34.800	    108.33	    30.046
  34.820	    108.33	    30.046
  34.840	    100.00	    28.868
  34.860	    200.00	    40.825
  34.880	    200.00	    40.825
  34.900	    208.33	    41.667
  34.920	    308.33	    50.690
  34.940	    283.33	    48.591
  34.960	    350.00	    54.006
  34.980	    483.33	    63.465
  35.000	    525.00	    66.144
  35.020	    508.33	    65.085
  35.040	    466.67	    62.361
  35.060	    566.67	    68.718
  35.080	    483.33	    63.465
  35.100	    491.67	    64.010
  35.120	    483.33	    63.465
  35.140	    483.33	    63.465
  35.160	    283.33	    48.591
  35.180	    308.33	    50.690
  35.200	    333.33	    52.705
  35.220	    300.00	    50.000
  35.240	    166.67	    37.268
  35.260	    166.67	    37.268
  35.280	    166.67	    37.268
  35.300	    141.67	    34.359
  35.320	    133.33	    33.333
  35.340	    175.00	    38.188
  35.360	    108.33	    30.046
  35.380	     91.67	    27.639
  35.400	    116.67	    31.180
  35.420	     66.67	    23.570
  35.440	     83.33	    26.352
  35.460	    141.67	    34.359
  35.480	     91.67	    27.639
  35.500	    116.67	    31.180
  35.520	    158.33	    36.324
  35.540	     83.33	    26.352
  35.560	    108.33	    30.046
  35.580	     75.00	    25.000
  35.600	    116.67	    31.180
  35.620	     91.67	    27.639
  35.640	     66.67	    23.570
  35.660	     83.33	    26.352
  35.680	     91.67	    27.639
  35.700	    133.33	    33.333
  35.720	     58.33	    22.048
  35.740	    100.00	    28.868
  35.760	    108.33	    30.046
  35.780	    125.00	    32.275
  35.800	     91.67	    27.639
  35.820	     41.67	    18.634
  35.840	    108.33	    30.046
  35.860	     75.00	    25.000
  35.880	    108.33	    30.046
  35.900	    100.00	    28.868
  35.920	    133.33	    33.333
  35.940	     91.67	    27.639
  35.960	     75.00	    25.000
  35.980	    141.67	    34.359
  36.000	    100.00	    28.868
  36.020	    116.67	    31.180
  36.040	     91.67	    27.639
  36.060	    100.00	    28.868
  36.080	    125.00	    32.275
  36.100	    125.00	    32.275
  36.120	    125.00	    32.275
  36.140	    116.67	    31.180
  36.160	    108.33	    30.046
  36.180	    108.33	    30.046
  36.200	    116.67	    31.180
  36.220	    150.00	    35.355
  36.240	    100.00	    28.868
  36.260	    166.67	    37.268
  36.280	    150.00	    35.355
  36.300	     91.67	    27.639
  36.320	    125.00	    32.275
  36.340	    133.33	    33.333
  36.360	     66.67	    23.570
  36.380	    108.33	    30.046
  36.400	    108.33	    30.046
  36.420	    100.00	    28.868
  36.440	     41.67	    18.634
  36.460	     83.33	    26.352
  36.480	    108.33	    30.046
  36.500	     50.00	    20.412
  36.520	    100.00	    28.868
  36.540	    133.33	    33.333
  36.560	     75.00	    25.000
  36.580	    108.33	    30.046
  36.600	    108.33	    30.046
  36.620	    108.33	    30.046
  36.640	     91.67	    27.639
  36.660	    116.67	    31.180
  36.680	     83.33	    26.352
  36.700	     25.00	    14.434
  36.720	     66.67	    23.570
  36.740	     66.67	    23.570
  36.760	     75.00	    25.000
  36.780	     66.67	    23.570
  36.800	    133.33	    33.333
  36.820	     91.67	    27.639
  36.840	    133.33	    33.333
  36.860	    141.67	    34.359
  36.880	     75.00	    25.000
  36.900	     75.00	    25.000
  36.920	     50.00	    20.412
  36.940	    125.00	    32.275
  36.960	     83.33	    26.352
  36.980	     58.33	    22.048
  37.000	     83.33	    26.352
  37.020	     33.33	    16.667
  37.040	    100.00	    28.868
  37.060	     66.67	    23.570
  37.080	     91.67	    27.639
  37.100	     91.67	    27.639
  37.120	    100.00	    28.868
  37.140	    125.00	    32.275
  37.160	     83.33	    26.352
  37.180	    108.33	    30.046
  37.200	    108.33	    30.046
  37.220	     50.00	    20.412
  37.240	     41.67	    18.634
  37.260	     41.67	    18.634
  37.280	     66.67	    23.570
  37.300	    116.67	    31.180
  37.320	     50.00	    20.412
  37.340	     91.67	    27.639
  37.360	    133.33	    33.333
  37.380	     58.33	    22.048
  37.400	     66.67	    23.570
  37.420	    125.00	    32.275
  37.440	    108.33	    30.046
  37.460	     66.67	    23.570
  37.480	    108.33	    30.046
  37.500	     91.67	    27.639
  37.520	    100.00	    28.868
  37.540	     83.33	    26.352
  37.560	     91.67	    27.639
  37.580	     75.00	    25.000
  37.600	     66.67	    23.570
  37.620	     75.00	    25.000
  37.640	    108.33	    30.046
  37.660	     75.00	    25.000
  37.680	    100.00	    28.868
  37.700	    108.33	    30.046
  37.720	     91.67	    27.639
  37.740	     83.33	    26.352
  37.760	     91.67	    27.639
  37.780	     75.00	    25.000
  37.800	    100.00	    28.868
  37.820	     50.00	    20.412
  37.840	     58.33	    22.048
  37.860	    158.33	    36.324
  37.880	     91.67	    27.639
  37.900	    108.33	    30.046
  37.920	    100.00	    28.868
  37.940	     58.33	    22.048
  37.960	     75.00	    25.000
  37.980	    150.00	    35.355
  38.000	     66.67	    23.570
  38.020	    116.67	    31.180
  38.040	    116.67	    31.180
  38.060	     75.00	    25.000
  38.080	    116.67	    31.180
  38.100	    116.67	    31.180
  38.120	     58.33	    22.048
  38.140	    108.33	    30.046
  38.160	    175.00	    38.188
  38.180	    125.00	    32.275
  38.200	    133.33	    33.333
  38.220	    208.33	    41.667
  38.240	    258.33	    46.398
  38.260	    308.33	    50.690
  38.280	    341.67	    53.359
  38.300	    458.33	    61.802
  38.320	    516.67	    65.617
  38.340	    533.33	    66.667
  38.360	    616.67	    71.686
  38.380	    575.00	    69.222
  38.400	    575.00	    69.222
  38.420	    608.33	    71.200
  38.440	    550.00	    67.700
  38.460	    466.67	    62.361
  38.480	    341.67	    53.359
  38.500	    325.00	    52.042
  38.520	    325.00	    52.042
  38.540	    250.00	    45.644
  38.560	    225.00	    43.301
  38.580	    158.33	    36.324
  38.600	    116.67	    31.180
  38.620	    183.33	    39.087
  38.640	    133.33	    33.333
  38.660	    108.33	    30.046
  38.680	    125.00	    32.275
  38.700	     91.67	    27.639
  38.720	     83.33	    26.352
  38.740	    141.67	    34.359
  38.760	    116.67	    31.180
  38.780	    133.33	    33.333
  38.800	    166.67	    37.268
  38.820	    141.67	    34.359
  38.840	    100.00	    28.868
  38.860	    141.67	    34.359
  38.880	    133.33	    33.333
  38.900	    108.33	    30.046
  38.920	     66.67	    23.570
  38.940	     66.67	    23.570
  38.960	     91.67	    27.639
  38.980	    108.33	    30.046
  39.000	    116.67	    31.180
  39.020	     91.67	    27.639
  39.040	    100.00	    28.868
  39.060	     91.67	    27.639
  39.080	     83.33	    26.352
  39.100	    108.33	    30.046
  39.120	    116.67	    31.180
  39.140	    108.33	    30.046
  39.160	     66.67	    23.570
  39.180	    125.00	    32.275
  39.200	    125.00	    32.275
  39.220	    125.00	    32.275
  39.240	     58.33	    22.048
  39.260	     91.67	    27.639
  39.280	     83.33	    26.352
  39.300	     66.67	    23.570
  39.320	    125.00	    32.275
  39.340	    158.33	    36.324
  39.360	    158.33	    36.324
  39.380	     66.67	    23.570
  39.400	     58.33	    22.048
  39.420	     83.33	    26.352
  39.440	    108.33	    30.046
  39.460	     91.67	    27.639
  39.480	     75.00	    25.000
  39.500	    125.00	    32.275
  39.520	    116.67	    31.180
  39.540	    133.33	    33.333
  39.560	    158.33	    36.324
  39.580	     91.67	    27.639
  39.600	     75.00	    25.000
  39.620	    116.67	    31.180
  39.640	     91.67	    27.639
  39.660	    100.00	    28.868
  39.680	     66.67	    23.570
  39.700	     75.00	    25.000
  39.720	    100.00	    28.868
  39.740	    150.00	    35.355
  39.760	    141.67	    34.359
  39.780	    116.67	    31.180
  39.800	    208.33	    41.667
  39.820	    116.67	    31.180
  39.840	    175.00	    38.188
  39.860	    166.67	    37.268
  39.880	    133.33	    33.333
  39.900	    200.00	    40.825
  39.920	    341.67	    53.359
  39.940	    250.00	    45.644
  39.960	    333.33	    52.705
  39.980	    525.00	    66.144
  40.000	    825.00	    82.916
  40.020	    808.33	    82.074
  40.040	   1058.33	    93.912
  40.060	   1366.67	   106.719
  40.080	   1483.33	   111.181
  40.100	   1741.67	   120.474
  40.120	   1983.33	   128.560
  40.140	   1883.33	   125.277
  40.160	   2008.33	   129.368
  40.180	   1950.00	   127.475
  40.200	   1675.00	   118.145
  40.220	   1300.00	   104.083
  40.240	   1108.33	    96.105
  40.260	    925.00	    87.797
  40.280	    816.67	    82.496
  40.300	    683.33	    75.462
  40.320	    541.67	    67.185
  40.340	    283.33	    48.591
  40.360	    275.00	    47.871
  40.380	    233.33	    44.096
  40.400	    183.33	    39.087
  40.420	    166.67	    37.268
  40.440	    158.33	    36.324
  40.460	    150.00	    35.355
  40.480	    200.00	    40.825
  40.500	    100.00	    28.868
  40.520	    108.33	    30.046
  40.540	    100.00	    28.868
  40.560	     75.00	    25.000
  40.580	    100.00	    28.868
  40.600	     50.00	    20.412
  40.620	    108.33	    30.046
  40.640	     58.33	    22.048
  40.660	    150.00	    35.355
  40.680	    108.33	    30.046
  40.700	    116.67	    31.180
  40.720	    183.33	    39.087
  40.740	    108.33	    30.046
  40.760	     91.67	    27.639
  40.780	    100.00	    28.868
  40.800	     83.33	    26.352
  40.820	    116.67	    31.180
  40.840	    100.00	    28.868
  40.860	    158.33	    36.324
  40.880	    116.67	    31.180
  40.900	    108.33	    30.046
  40.920	    108.33	    30.046
  40.940	     91.67	    27.639
  40.960	    116.67	    31.180
  40.980	    108.33	    30.046
  41.000	    108.33	    30.046
  41.020	    141.67	    34.359
  41.040	    133.33	    33.333
  41.060	     91.67	    27.639
  41.080	     91.67	    27.639
  41.100	     83.33	    26.352
  41.120	     50.00	    20.412
  41.140	    100.00	    28.868
  41.160	    116.67	    31.180
  41.180	     91.67	    27.639
  41.200	    100.00	    28.868
  41.220	    100.00	    28.868
  41.240	    116.67	    31.180
  41.260	    100.00	    28.868
  41.280	    116.67	    31.180
  41.300	    116.67	    31.180
  41.320	    100.00	    28.868
  41.340	     83.33	    26.352
  41.360	    116.67	    31.180
  41.380	     75.00	    25.000
  41.400	    100.00	    28.868
  41.420	    116.67	    31.180
  41.440	    100.00	    28.868
  41.460	     91.67	    27.639
  41.480	    108.33	    30.046
  41.500	     91.67	    27.639
  41.520	     66.67	    23.570
  41.540	     91.67	    27.639
  41.560	    100.00	    28.868
  41.580	     91.67	    27.639
  41.600	     83.33	    26.352
  41.620	    116.67	    31.180
  41.640	     33.33	    16.667
  41.660	     83.33	    26.352
  41.680	    100.00	    28.868
  41.700	    108.33	    30.046
  41.720	     66.67	    23.570
  41.740	    116.67	    31.180
  41.760	    100.00	    28.868
  41.780	     66.67	    23.570
  41.800	     83.33	    26.352
  41.820	    116.67	    31.180
  41.840	    100.00	    28.868
  41.860	     83.33	    26.352
  41.880	    108.33	    30.046
  41.900	     75.00	    25.000
  41.920	     91.67	    27.639
  41.940	     58.33	    22.048
  41.960	     75.00	    25.000
  41.980	     75.00	    25.000
  42.000	     66.67	    23.570
  42.020	    100.00	    28.868
  42.040	    125.00	    32.275
  42.060	     66.67	    23.570
  42.080	     83.33	    26.352
  42.100	     91.67	    27.639
  42.120	    116.67	    31.180
  42.140	     91.67	    27.639
  42.160	    133.33	    33.333
  42.180	     75.00	    25.000
  42.200	    125.00	    32.275
  42.220	    125.00	    32.275
  42.240	     25.00	    14.434
  42.260	    100.00	    28.868
  42.280	     58.33	    22.048
  42.300	     83.33	    26.352
  42.320	     91.67	    27.639
  42.340	     75.00	    25.000
  42.360	    108.33	    30.046
  42.380	    108.33	    30.046
  42.400	    108.33	    30.046
  42.420	    108.33	    30.046
  42.440	    100.00	    28.868
  42.460	     91.67	    27.639
  42.480	    108.33	    30.046
  42.500	     83.33	    26.352
  42.520	     91.67	    27.639
  42.540	    116.67	    31.180
  42.560	    125.00	    32.275
  42.580	     50.00	    20.412
  42.600	     91.67	    27.639
  42.620	     83.33	    26.352
  42.640	    100.00	    28.868
  42.660	     91.67	    27.639
  42.680	     83.33	    26.352
  42.700	     50.00	    20.412
  42.720	    116.67	    31.180
  42.740	     83.33	    26.352
  42.760	    100.00	    28.868
  42.780	     75.00	    25.000
  42.800	     83.33	    26.352
  42.820	     58.33	    22.048
  42.840	    158.33	    36.324
  42.860	     83.33	    26.352
  42.880	     58.33	    22.048
  42.900	     58.33	    22.048
  42.920	    125.00	    32.275
  42.940	     66.67	    23.570
  42.960	    108.33	    30.046
  42.980	    108.33	    30.046
  43.000	    100.00	    28.868
  43.020	    133.33	    33.333
  43.040	    133.33	    33.333
  43.060	    100.00	    28.868
  43.080	     91.67	    27.639
  43.100	    116.67	    31.180
  43.120	     91.67	    27.639
  43.140	    100.00	    28.868
  43.160	    116.67	    31.180
  43.180	    133.33	    33.333
  43.200	     83.33	    26.352
  43.220	    116.67	    31.180
  43.240	    125.00	    32.275
  43.260	     58.33	    22.048
  43.280	     83.33	    26.352
  43.300	    100.00	    28.868
  43.320	     33.33	    16.667
  43.340	     83.33	    26.352
  43.360	    116.67	    31.180
  43.380	     66.67	    23.570
  43.400	     83.33	    26.352
  43.420	     83.33	    26.352
  43.440	    108.33	    30.046
  43.460	     58.33	    22.048
  43.480	     66.67	    23.570
  43.500	    125.00	    32.275
  43.520	     58.33	    22.048
  43.540	    116.67	    31.180
  43.560	     58.33	    22.048
  43.580	     58.33	    22.048
  43.600	    100.00	    28.868
  43.620	     91.67	    27.639
  43.640	    108.33	    30.046
  43.660	    100.00	    28.868
  43.680	     75.00	    25.000
  43.700	     50.00	    20.412
  43.720	    150.00	    35.355
  43.740	     33.33	    16.667
  43.760	     91.67	    27.639
  43.780	    116.67	    31.180
  43.800	     83.33	    26.352
  43.820	     50.00	    20.412
  43.840	     83.33	    26.352
  43.860	    100.00	    28.868
  43.880	     58.33	    22.048
  43.900	     91.67	    27.639
  43.920	     66.67	    23.570
  43.940	    116.67	    31.180
  43.960	     75.00	    25.000
  43.980	     83.33	    26.352
  44.000	     50.00	    20.412
  44.020	    125.00	    32.275
  44.040	     91.67	    27.639
  44.060	    125.00	    32.275
  44.080	     83.33	    26.352
  44.100	     58.33	    22.048
  44.120	     66.67	    23.570
  44.140	    108.33	    30.046
  44.160	     83.33	    26.352
  44.180	     66.67	    23.570
  44.200	     58.33	    22.048
  44.220	     91.67	    27.639
  44.240	     58.33	    22.048
  44.260	    116.67	    31.180
  44.280	     83.33	    26.352
  44.300	     91.67	    27.639
  44.320	     75.00	    25.000
  44.340	     50.00	    20.412
  44.360	     58.33	    22.048
  44.380	    125.00	    32.275
  44.400	    141.67	    34.359
  44.420	     75.00	    25.000
  44.440	    116.67	    31.180
  44.460	     66.67	    23.570
  44.480	     50.00	    20.412
  44.500	    108.33	    30.046
  44.520	     66.67	    23.570
  44.540	     33.33	    16.667
  44.560	     66.67	    23.570
  44.580	    116.67	    31.180
  44.600	     91.67	    27.639
  44.620	     33.33	    16.667
  44.640	    150.00	    35.355
  44.660	     83.33	    26.352
  44.680	     83.33	    26.352
  44.700	     83.33	    26.352
  44.720	    108.33	    30.046
  44.740	    108.33	    30.046
  44.760	     41.67	    18.634
  44.780	     75.00	    25.000
  44.800	     83.33	    26.352
  44.820	     58.33	    22.048
  44.840	     66.67	    23.570
  44.860	     91.67	    27.639
  44.880	     58.33	    22.048
  44.900	    100.00	    28.868
  44.920	     91.67	    27.639
  44.940	     75.00	    25.000
  44.960	     66.67	    23.570
  44.980	     91.67	    27.639
  45.000	     75.00	    25.000
  45.020	    133.33	    33.333
  45.040	    116.67	    31.180
  45.060	    100.00	    28.868
  45.080	     83.33	    26.352
  45.100	     50.00	    20.412
  45.120	    158.33	    36.324
  45.140	     83.33	    26.352
  45.160	     83.33	    26.352
  45.180	     83.33	    26.352
  45.200	    100.00	    28.868
  45.220	     83.33	    26.352
  45.240	    100.00	    28.868
  45.260	    108.33	    30.046
  45.280	     91.67	    27.639
  45.300	    108.33	    30.046
  45.320	    116.67	    31.180
  45.340	    125.00	    32.275
  45.360	     58.33	    22.048
  45.380	     66.67	    23.570
  45.400	     66.67	    23.570
  45.420	     66.67	    23.570
  45.440	     75.00	    25.000
  45.460	     91.67	    27.639
  45.480	     50.00	    20.412
  45.500	     91.67	    27.639
  45.520	    125.00	    32.275
  45.540	    108.33	    30.046
  45.560	     91.67	    27.639
  45.580	     75.00	    25.000
  45.600	    125.00	    32.275
  45.620	    100.00	    28.868
  45.640	     66.67	    23.570
  45.660	     58.33	    22.048
  45.680	     50.00	    20.412
  45.700	    100.00	    28.868
  45.720	     83.33	    26.352
  45.740	    100.00	    28.868
  45.760	    133.33	    33.333
  45.780	    100.00	    28.868
  45.800	     58.33	    22.048
  45.820	    100.00	    28.868
  45.840	     91.67	    27.639
  45.860	    100.00	    28.868
  45.880	     66.67	    23.570
  45.900	     75.00	    25.000
  45.920	     91.67	    27.639
  45.940	    108.33	    30.046
  45.960	    108.33	    30.046
  45.980	     50.00	    20.412
  46.000	    133.33	    33.333
  46.020	     66.67	    23.570
  46.040	     75.00	    25.000
  46.060	     83.33	    26.352
  46.080	    108.33	    30.046
  46.100	    100.00	    28.868
  46.120	     83.33	    26.352
  46.140	     83.33	    26.352
  46.160	    108.33	    30.046
  46.180	     83.33	    26.352
  46.200	     75.00	    25.000
  46.220	     33.33	    16.667
  46.240	     33.33	    16.667
  46.260	    133.33	    33.333
  46.280	    125.00	    32.275
  46.300	    100.00	    28.868
  46.320	    116.67	    31.180
  46.340	     83.33	    26.352
  46.360	     58.33	    22.048
  46.380	    141.67	    34.359
  46.400	    100.00	    28.868
  46.420	     75.00	    25.000
  46.440	     83.33	    26.352
  46.460	     75.00	    25.000
  46.480	     75.00	    25.000
  46.500	     66.67	    23.570
  46.520	     75.00	    25.000
  46.540	     58.33	    22.048
  46.560	     66.67	    23.570
  46.580	    108.33	    30.046
  46.600	     83.33	    26.352
  46.620	     41.67	    18.634
  46.640	    100.00	    28.868
  46.660	     91.67	    27.639
  46.680	    100.00	    28.868
  46.700	     75.00	    25.000
  46.720	     75.00	    25.000
  46.740	     66.67	    23.570
  46.760	     41.67	    18.634
  46.780	     91.67	    27.639
  46.800	    100.00	    28.868
  46.820	    125.00	    32.275
  46.840	     66.67	    23.570
  46.860	     66.67	    23.570
  46.880	     83.33	    26.352
  46.900	    100.00	    28.868
  46.920	     83.33	    26.352
  46.940	     75.00	    25.000
  46.960	     66.67	    23.570
  46.980	     75.00	    25.000
  47.000	    100.00	    28.868
  47.020	    125.00	    32.275
  47.040	    100.00	    28.868
  47.060	     33.33	    16.667
  47.080	    100.00	    28.868
  47.100	    116.67	    31.180
  47.120	     91.67	    27.639
  47.140	     91.67	    27.639
  47.160	     41.67	    18.634
  47.180	    100.00	    28.868
  47.200	     83.33	    26.352
  47.220	     58.33	    22.048
  47.240	     66.67	    23.570
  47.260	     83.33	    26.352
  47.280	    100.00	    28.868
  47.300	     58.33	    22.048
  47.320	     41.67	    18.634
  47.340	     91.67	    27.639
  47.360	     41.67	    18.634
  47.380	     83.33	    26.352
  47.400	     58.33	    22.048
  47.420	     83.33	    26.352
  47.440	     91.67	    27.639
  47.460	    100.00	    28.868
  47.480	     66.67	    23.570
  47.500	    100.00	    28.868
  47.520	     91.67	    27.639
  47.540	     91.67	    27.639
  47.560	     91.67	    27.639
  47.580	     91.67	    27.639
  47.600	     66.67	    23.570
  47.620	     66.67	    23.570
  47.640	     83.33	    26.352
  47.660	    150.00	    35.355
  47.680	     16.67	    11.785
  47.700	    133.33	    33.333
  47.720	    133.33	    33.333
  47.740	     58.33	    22.048
  47.760	     66.67	    23.570
  47.780	     66.67	    23.570
  47.800	     91.67	    27.639
  47.820	     75.00	    25.000
  47.840	    100.00	    28.868
  47.860	    125.00	    32.275
  47.880	     58.33	    22.048
  47.900	     91.67	    27.639
  47.920	    116.67	    31.180
  47.940	     58.33	    22.048
  47.960	     66.67	    23.570
  47.980	     91.67	    27.639
  48.000	     58.33	    22.048
  48.020	     83.33	    26.352
  48.040	    116.67	    31.180
  48.060	     83.33	    26.352
  48.080	     66.67	    23.570
  48.100	     75.00	    25.000
  48.120	     75.00	    25.000
  48.140	     66.67	    23.570
  48.160	     75.00	    25.000
  48.180	    133.33	    33.333
  48.200	    125.00	    32.275
  48.220	     66.67	    23.570
  48.240	     75.00	    25.000
  48.260	    125.00	    32.275
  48.280	     41.67	    18.634
  48.300	    116.67	    31.180
  48.320	    116.67	    31.180
  48.340	     58.33	    22.048
  48.360	     33.33	    16.667
  48.380	    108.33	    30.046
  48.400	     66.67	    23.570
  48.420	     83.33	    26.352
  48.440	     91.67	    27.639
  48.460	     91.67	    27.639
  48.480	     50.00	    20.412
  48.500	     66.67	    23.570
  48.520	    100.00	    28.868
  48.540	     91.67	    27.639
  48.560	     75.00	    25.000
  48.580	     83.33	    26.352
  48.600	     50.00	    20.412
  48.620	     33.33	    16.667
  48.640	    108.33	    30.046
  48.660	     50.00	    20.412
  48.680	     83.33	    26.352
  48.700	     50.00	    20.412
  48.720	    125.00	    32.275
  48.740	     25.00	    14.434
  48.760	    133.33	    33.333
  48.780	     50.00	    20.412
  48.800	     66.67	    23.570
  48.820	     91.67	    27.639
  48.840	     41.67	    18.634
  48.860	     58.33	    22.048
  48.880	     91.67	    27.639
  48.900	     41.67	    18.634
  48.920	     91.67	    27.639
  48.940	    100.00	    28.868
  48.960	     83.33	    26.352
  48.980	    108.33	    30.046
  49.000	     50.00	    20.412
  49.020	    116.67	    31.180
  49.040	    116.67	    31.180
  49.060	     66.67	    23.570
  49.080	    116.67	    31.180
  49.100	     91.67	    27.639
  49.120	     50.00	    20.412
  49.140	     66.67	    23.570
  49.160	     66.67	    23.570
  49.180	    100.00	    28.868
  49.200	     66.67	    23.570
  49.220	    116.67	    31.180
  49.240	    100.00	    28.868
  49.260	     91.67	    27.639
  49.280	    116.67	    31.180
  49.300	     50.00	    20.412
  49.320	    141.67	    34.359
  49.340	    100.00	    28.868
  49.360	     75.00	    25.000
  49.380	     75.00	    25.000
  49.400	     58.33	    22.048
  49.420	     75.00	    25.000
  49.440	     50.00	    20.412
  49.460	     66.67	    23.570
  49.480	     50.00	    20.412
  49.500	     58.33	    22.048
  49.520	    108.33	    30.046
  49.540	    108.33	    30.046
  49.560	     75.00	    25.000
  49.580	     83.33	    26.352
  49.600	    108.33	    30.046
  49.620	     83.33	    26.352
  49.640	     83.33	    26.352
  49.660	    116.67	    31.180
  49.680	     83.33	    26.352
  49.700	    100.00	    28.868
  49.720	    133.33	    33.333
  49.740	     75.00	    25.000
  49.760	    100.00	    28.868
  49.780	     41.67	    18.634
  49.800	     66.67	    23.570
  49.820	     91.67	    27.639
  49.840	     83.33	    26.352
  49.860	    116.67	    31.180
  49.880	    108.33	    30.046
  49.900	    100.00	    28.868
  49.920	     83.33	    26.352
  49.940	     83.33	    26.352
  49.960	    158.33	    36.324
  49.980	     75.00	    25.000
  50.000	     25.00	    14.434
  50.020	     41.67	    18.634
  50.040	     75.00	    25.000
  50.060	     50.00	    20.412
  50.080	     58.33	    22.048
  50.100	    125.00	    32.275
  50.120	    100.00	    28.868
  50.140	    108.33	    30.046
  50.160	     83.33	    26.352
  50.180	    116.67	    31.180
  50.200	    125.00	    32.275
  50.220	    108.33	    30.046
  50.240	     83.33	    26.352
  50.260	     66.67	    23.570
  50.280	     50.00	    20.412
  50.300	    100.00	    28.868
  50.320	    100.00	    28.868
  50.340	    100.00	    28.868
  50.360	     75.00	    25.000
  50.380	    133.33	    33.333
  50.400	     75.00	    25.000
  50.420	     75.00	    25.000
  50.440	     41.67	    18.634
  50.460	     50.00	    20.412
  50.480	     75.00	    25.000
  50.500	     91.67	    27.639
  50.520	    141.67	    34.359
  50.540	     75.00	    25.000
  50.560	     66.67	    23.570
  50.580	     91.67	    27.639
  50.600	     75.00	    25.000
  50.620	    150.00	    35.355
  50.640	     83.33	    26.352
  50.660	     75.00	    25.000
  50.680	    116.67	    31.180
  50.700	     91.67	    27.639
  50.720	     83.33	    26.352
  50.740	     75.00	    25.000
  50.760	     83.33	    26.352
  50.780	    108.33	    30.046
  50.800	    116.67	    31.180
  50.820	     50.00	    20.412
  50.840	     58.33	    22.048
  50.860	    108.33	    30.046
  50.880	     33.33	    16.667
  50.900	     66.67	    23.570
  50.920	     66.67	    23.570
  50.940	    141.67	    34.359
  50.960	     91.67	    27.639
  50.980	    141.67	    34.359
  51.000	     33.33	    16.667
  51.020	     41.67	    18.634
  51.040	    108.33	    30.046
  51.060	     91.67	    27.639
  51.080	     58.33	    22.048
  51.100	     66.67	    23.570
  51.120	     50.00	    20.412
  51.140	    116.67	    31.180
  51.160	    125.00	    32.275
  51.180	    100.00	    28.868
  51.200	     50.00	    20.412
  51.220	    108.33	    30.046
  51.240	     50.00	    20.412
  51.260	     91.67	    27.639
  51.280	     75.00	    25.000
  51.300	     50.00	    20.412
  51.320	     91.67	    27.639
  51.340	     75.00	    25.000
  51.360	     83.33	    26.352
  51.380	     66.67	    23.570
  51.400	     83.33	    26.352
  51.420	     41.67	    18.634
  51.440	     66.67	    23.570
  51.460	     50.00	    20.412
  51.480	    116.67	    31.180
  51.500	     91.67	    27.639
  51.520	    100.00	    28.868
  51.540	     83.33	    26.352
  51.560	     75.00	    25.000
  51.580	     33.33	    16.667
  51.600	    100.00	    28.868
  51.620	     66.67	    23.570
  51.640	     50.00	    20.412
  51.660	     50.00	    20.412
  51.680	     91.67	    27.639
  51.700	     75.00	    25.000
  51.720	     83.33	    26.352
  51.740	     83.33	    26.352
  51.760	     33.33	    16.667
  51.780	     41.67	    18.634
  51.800	     50.00	    20.412
  51.820	     75.00	    25.000
  51.840	     91.67	    27.639
  51.860	     41.67	    18.634
  51.880	    133.33	    33.333
  51.900	     66.67	    23.570
  51.920	     66.67	    23.570
  51.940	     75.00	    25.000
  51.960	    108.33	    30.046
  51.980	    100.00	    28.868
  52.000	    100.00	    28.868
  52.020	     91.67	    27.639
  52.040	     91.67	    27.639
  52.060	    108.33	    30.046
  52.080	     75.00	    25.000
  52.100	    125.00	    32.275
  52.120	     91.67	    27.639
  52.140	     33.33	    16.667
  52.160	    158.33	    36.324
  52.180	     66.67	    23.570
  52.200	     91.67	    27.639
  52.220	    125.00	    32.275
  52.240	     91.67	    27.639
  52.260	     91.67	    27.639
  52.280	    108.33	    30.046
  52.300	     75.00	    25.000
  52.320	    100.00	    28.868
  52.340	     41.67	    18.634
  52.360	    108.33	    30.046
  52.380	     58.33	    22.048
  52.400	     50.00	    20.412
  52.420	     58.33	    22.048
  52.440	     83.33	    26.352
  52.460	    108.33	    30.046
  52.480	     83.33	    26.352
  52.500	    125.00	    32.275
  52.520	    116.67	    31.180
  52.540	    100.00	    28.868
  52.560	     83.33	    26.352
  52.580	     75.00	    25.000
  52.600	     83.33	    26.352
  52.620	    100.00	    28.868
  52.640	    116.67	    31.180
  52.660	     41.67	    18.634
  52.680	     66.67	    23.570
  52.700	    158.33	    36.324
  52.720	    125.00	    32.275
  52.740	     83.33	    26.352
  52.760	    100.00	    28.868
  52.780	     91.67	    27.639
  52.800	    133.33	    33.333
  52.820	    141.67	    34.359
  52.840	    166.67	    37.268
  52.860	    133.33	    33.333
  52.880	    216.67	    42.492
  52.900	    283.33	    48.591
  52.920	    250.00	    45.644
  52.940	    375.00	    55.902
  52.960	    275.00	    47.871
  52.980	    316.67	    51.370
  53.000	    341.67	    53.359
  53.020	    266.67	    47.140
  53.040	    233.33	    44.096
  53.060	    375.00	    55.902
  53.080	    308.33	    50.690
  53.100	    291.67	    49.301
  53.120	    158.33	    36.324
  53.140	    300.00	    50.000
  53.160	    166.67	    37.268
  53.180	    166.67	    37.268
  53.200	     83.33	    26.352
  53.220	    141.67	    34.359
  53.240	    125.00	    32.275
  53.260	     66.67	    23.570
  53.280	     91.67	    27.639
  53.300	     75.00	    25.000
  53.320	     50.00	    20.412
  53.340	    100.00	    28.868
  53.360	     91.67	    27.639
  53.380	     66.67	    23.570
  53.400	    150.00	    35.355
  53.420	    108.33	    30.046
  53.440	     83.33	    26.352
  53.460	     91.67	    27.639
  53.480	     25.00	    14.434
  53.500	     66.67	    23.570
  53.520	    116.67	    31.180
  53.540	     75.00	    25.000
  53.560	    100.00	    28.868
  53.580	     41.67	    18.634
  53.600	    100.00	    28.868
  53.620	    141.67	    34.359
  53.640	     91.67	    27.639
  53.660	    100.00	    28.868
  53.680	     91.67	    27.639
  53.700	     91.67	    27.639
  53.720	     91.67	    27.639
  53.740	     75.00	    25.000
  53.760	    125.00	    32.275
  53.780	    150.00	    35.355
  53.800	    100.00	    28.868
  53.820	    100.00	    28.868
  53.840	     41.67	    18.634
  53.860	    116.67	    31.180
  53.880	     83.33	    26.352
  53.900	     83.33	    26.352
  53.920	    150.00	    35.355
  53.940	     66.67	    23.570
  53.960	     50.00	    20.412
  53.980	     33.33	    16.667
  54.000	     83.33	    26.352
  54.020	     75.00	    25.000
  54.040	     91.67	    27.639
  54.060	     91.67	    27.639
  54.080	     91.67	    27.639
  54.100	     50.00	    20.412
  54.120	     58.33	    22.048
  54.140	     75.00	    25.000
  54.160	     50.00	    20.412
  54.180	     58.33	    22.048
  54.200	     66.67	    23.570
  54.220	    100.00	    28.868
  54.240	    116.67	    31.180
  54.260	     50.00	    20.412
  54.280	     75.00	    25.000
  54.300	     83.33	    26.352
  54.320	    133.33	    33.333
  54.340	     91.67	    27.639
  54.360	     58.33	    22.048
  54.380	     91.67	    27.639
  54.400	     50.00	    20.412
  54.420	     83.33	    26.352
  54.440	     83.33	    26.352
  54.460	    100.00	    28.868
  54.480	     91.67	    27.639
  54.500	    125.00	    32.275
  54.520	     66.67	    23.570
  54.540	     83.33	    26.352
  54.560	     58.33	    22.048
  54.580	     66.67	    23.570
  54.600	     66.67	    23.570
  54.620	    108.33	    30.046
  54.640	     75.00	    25.000
  54.660	     75.00	    25.000
  54.680	     66.67	    23.570
  54.700	     83.33	    26.352
  54.720	     41.67	    18.634
  54.740	     83.33	    26.352
  54.760	     91.67	    27.639
  54.780	     66.67	    23.570
  54.800	    116.67	    31.180
  54.820	    108.33	    30.046
  54.840	     41.67	    18.634
  54.860	     66.67	    23.570
  54.880	     25.00	    14.434
  54.900	     50.00	    20.412
  54.920	    116.67	    31.180
  54.940	    100.00	    28.868
  54.960	    108.33	    30.046
  54.980	     66.67	    23.570
  55.000	     66.67	    23.570
  55.020	    100.00	    28.868
  55.040	     75.00	    25.000
  55.060	    150.00	    35.355
  55.080	     91.67	    27.639
  55.100	     41.67	    18.634
  55.120	    116.67	    31.180
  55.140	     33.33	    16.667
  55.160	     66.67	    23.570
  55.180	    100.00	    28.868
  55.200	     75.00	    25.000
  55.220	    108.33	    30.046
  55.240	    100.00	    28.868
  55.260	     91.67	    27.639
  55.280	     91.67	    27.639
  55.300	     41.67	    18.634
  55.320	     91.67	    27.639
  55.340	     66.67	    23.570
  55.360	     91.67	    27.639
  55.380	     75.00	    25.000
  55.400	     50.00	    20.412
  55.420	     75.00	    25.000
  55.440	    108.33	    30.046
  55.460	    116.67	    31.180
  55.480	     91.67	    27.639
  55.500	    100.00	    28.868
  55.520	    133.33	    33.333
  55.540	     83.33	    26.352
  55.560	     66.67	    23.570
  55.580	     83.33	    26.352
  55.600	     83.33	    26.352
  55.620	     75.00	    25.000
  55.640	     75.00	    25.000
  55.660	     83.33	    26.352
  55.680	     83.33	    26.352
  55.700	     58.33	    22.048
  55.720	    100.00	    28.868
  55.740	    158.33	    36.324
  55.760	     91.67	    27.639
  55.780	     91.67	    27.639
  55.800	     50.00	    20.412
  55.820	     41.67	    18.634
  55.840	     66.67	    23.570
  55.860	     83.33	    26.352
  55.880	     50.00	    20.412
  55.900	    100.00	    28.868
  55.920	     91.67	    27.639
  55.940	    116.67	    31.180
  55.960	    100.00	    28.868
  55.980	     83.33	    26.352
  56.000	     58.33	    22.048
  56.020	    125.00	    32.275
  56.040	     58.33	    22.048
  56.060	     83.33	    26.352
  56.080	     50.00	    20.412
  56.100	     91.67	    27.639
  56.120	    100.00	    28.868
  56.140	    141.67	    34.359
  56.160	     41.67	    18.634
  56.180	    158.33	    36.324
  56.200	     33.33	    16.667
  56.220	     66.67	    23.570
  56.240	    116.67	    31.180
  56.260	     83.33	    26.352
  56.280	     50.00	    20.412
  56.300	    108.33	    30.046
  56.320	     66.67	    23.570
  56.340	     75.00	    25.000
  56.360	    141.67	    34.359
  56.380	     33.33	    16.667
  56.400	    100.00	    28.868
  56.420	     83.33	    26.352
  56.440	     91.67	    27.639
  56.460	     41.67	    18.634
  56.480	    100.00	    28.868
  56.500	     75.00	    25.000
  56.520	     75.00	    25.000
  56.540	     91.67	    27.639
  56.560	    100.00	    28.868
  56.580	    100.00	    28.868
  56.600	     41.67	    18.634
  56.620	     91.67	    27.639
  56.640	     75.00	    25.000
  56.660	     66.67	    23.570
  56.680	     91.67	    27.639
  56.700	    141.67	    34.359
  56.720	     83.33	    26.352
  56.740	     83.33	    26.352
  56.760	     58.33	    22.048
  56.780	    133.33	    33.333
  56.800	     91.67	    27.639
  56.820	    108.33	    30.046
  56.840	     91.67	    27.639
  56.860	     58.33	    22.048
  56.880	    100.00	    28.868
  56.900	    100.00	    28.868
  56.920	     58.33	    22.048
  56.940	    100.00	    28.868
  56.960	    116.67	    31.180
  56.980	     83.33	    26.352
  57.000	     83.33	    26.352
  57.020	     66.67	    23.570
  57.040	     75.00	    25.000
  57.060	     91.67	    27.639
  57.080	     83.33	    26.352
  57.100	     83.33	    26.352
  57.120	    116.67	    31.180
  57.140	     91.67	    27.639
  57.160	     91.67	    27.639
  57.180	     83.33	    26.352
  57.200	     83.33	    26.352
  57.220	     50.00	    20.412
  57.240	     75.00	    25.000
  57.260	    100.00	    28.868
  57.280	    116.67	    31.180
  57.300	     75.00	    25.000
  57.320	     58.33	    22.048
  57.340	     75.00	    25.000
  57.360	    100.00	    28.868
  57.380	     58.33	    22.048
  57.400	     83.33	    26.352
  57.420	     83.33	    26.352
  57.440	     25.00	    14.434
  57.460	     83.33	    26.352
  57.480	    125.00	    32.275
  57.500	     83.33	    26.352
  57.520	     91.67	    27.639
  57.540	    100.00	    28.868
  57.560	     41.67	    18.634
  57.580	    141.67	    34.359
  57.600	    100.00	    28.868
  57.620	     75.00	    25.000
  57.640	    108.33	    30.046
  57.660	     83.33	    26.352
  57.680	     83.33	    26.352
  57.700	     91.67	    27.639
  57.720	     83.33	    26.352
  57.740	    116.67	    31.180
  57.760	     83.33	    26.352
  57.780	     50.00	    20.412
  57.800	     83.33	    26.352
  57.820	     83.33	    26.352
  57.840	    108.33	    30.046
  57.860	     91.67	    27.639
  57.880	     58.33	    22.048
  57.900	     33.33	    16.667
  57.920	     75.00	    25.000
  57.940	     66.67	    23.570
  57.960	     91.67	    27.639
  57.980	     83.33	    26.352
  58.000	     91.67	    27.639
  58.020	     50.00	    20.412
  58.040	     50.00	    20.412
  58.060	     83.33	    26.352
  58.080	    133.33	    33.333
  58.100	    125.00	    32.275
  58.120	     58.33	    22.048
  58.140	     66.67	    23.570
  58.160	     91.67	    27.639
  58.180	     75.00	    25.000
  58.200	     66.67	    23.570
  58.220	     91.67	    27.639
  58.240	     91.67	    27.639
  58.260	     83.33	    26.352
  58.280	     83.33	    26.352
  58.300	    100.00	    28.868
  58.320	     75.00	    25.000
  58.340	     83.33	    26.352
  58.360	     66.67	    23.570
  58.380	     33.33	    16.667
  58.400	    150.00	    35.355
  58.420	    100.00	    28.868
  58.440	     75.00	    25.000
  58.460	    108.33	    30.046
  58.480	    100.00	    28.868
  58.500	     83.33	    26.352
  58.520	     58.33	    22.048
  58.540	    100.00	    28.868
  58.560	     58.33	    22.048
  58.580	    116.67	    31.180
  58.600	     66.67	    23.570
  58.620	    116.67	    31.180
  58.640	     75.00	    25.000
  58.660	     75.00	    25.000
  58.680	     83.33	    26.352
  58.700	     75.00	    25.000
  58.720	     66.67	    23.570
  58.740	    125.00	    32.275
  58.760	     58.33	    22.048
  58.780	     83.33	    26.352
  58.800	     91.67	    27.639
  58.820	     91.67	    27.639
  58.840	     83.33	    26.352
  58.860	     75.00	    25.000
  58.880	     33.33	    16.667
  58.900	     91.67	    27.639
  58.920	     91.67	    27.639
  58.940	     75.00	    25.000
  58.960	     75.00	    25.000
  58.980	     83.33	    26.352
  59.000	     50.00	    20.412
  59.020	     75.00	    25.000
  59.040	    108.33	    30.046
  59.060	     50.00	    20.412
  59.080	    116.67	    31.180
  59.100	    125.00	    32.275
  59.120	     75.00	    25.000
  59.140	     66.67	    23.570
  59.160	     33.33	    16.667
  59.180	    100.00	    28.868
  59.200	    100.00	    28.868
  59.220	     66.67	    23.570
  59.240	    125.00	    32.275
  59.260	     83.33	    26.352
  59.280	     91.67	    27.639
  59.300	     75.00	    25.000
  59.320	    125.00	    32.275
  59.340	     83.33	    26.352
  59.360	    125.00	    32.275
  59.380	     83.33	    26.352
  59.400	     41.67	    18.634
  59.420	     83.33	    26.352
  59.440	     41.67	    18.634
  59.460	     83.33	    26.352
  59.480	     33.33	    16.667
  59.500	     66.67	    23.570
  59.520	    158.33	    36.324
  59.540	    158.33	    36.324
  59.560	     58.33	    22.048
  59.580	     58.33	    22.048
  59.600	    100.00	    28.868
  59.620	     83.33	    26.352
  59.640	    100.00	    28.868
  59.660	     83.33	    26.352
  59.680	     75.00	    25.000
  59.700	    100.00	    28.868
  59.720	     58.33	    22.048
  59.740	     41.67	    18.634
  59.760	     91.67	    27.639
  59.780	     58.33	    22.048
  59.800	     66.67	    23.570
  59.820	    125.00	    32.275
  59.840	    100.00	    28.868
  59.860	    158.33	    36.324
  59.880	     33.33	    16.667
  59.900	     91.67	    27.639
  59.920	    108.33	    30.046
  59.940	     75.00	    25.000
  59.960	     58.33	    22.048
  59.980	     83.33	    26.352
  60.000	     66.67	    23.570
  60.020	     75.00	    25.000
  60.040	     83.33	    26.352
  60.060	     83.33	    26.352
  60.080	    100.00	    28.868
  60.100	     91.67	    27.639
  60.120	     33.33	    16.667
  60.140	     83.33	    26.352
  60.160	     75.00	    25.000
  60.180	     50.00	    20.412
  60.200	     75.00	    25.000
  60.220	    116.67	    31.180
  60.240	     66.67	    23.570
  60.260	     33.33	    16.667
  60.280	     83.33	    26.352
  60.300	     58.33	    22.048
  60.320	     75.00	    25.000
  60.340	     83.33	    26.352
  60.360	     41.67	    18.634
  60.380	    116.67	    31.180
  60.400	    108.33	    30.046
  60.420	     91.67	    27.639
  60.440	     75.00	    25.000
  60.460	     75.00	    25.000
  60.480	     66.67	    23.570
  60.500	     75.00	    25.000
  60.520	     83.33	    26.352
  60.540	     91.67	    27.639
  60.560	     75.00	    25.000
  60.580	    125.00	    32.275
  60.600	     75.00	    25.000
  60.620	    116.67	    31.180
  60.640	     75.00	    25.000
  60.660	     75.00	    25.000
  60.680	     66.67	    23.570
  60.700	    116.67	    31.180
  60.720	     66.67	    23.570
  60.740	     16.67	    11.785
  60.760	     58.33	    22.048
  60.780	    100.00	    28.868
  60.800	     50.00	    20.412
  60.820	     58.33	    22.048
  60.840	    108.33	    30.046
  60.860	     66.67	    23.570
  60.880	     50.00	    20.412
  60.900	    108.33	    30.046
  60.920	    108.33	    30.046
  60.940	     91.67	    27.639
  60.960	     50.00	    20.412
  60.980	    100.00	    28.868
  61.000	     91.67	    27.639
  61.020	     91.67	    27.639
  61.040	     75.00	    25.000
  61.060	     75.00	    25.000
  61.080	     75.00	    25.000
  61.100	     66.67	    23.570
  61.120	     75.00	    25.000
  61.140	    108.33	    30.046
  61.160	     83.33	    26.352
  61.180	    108.33	    30.046
  61.200	     83.33	    26.352
  61.220	     66.67	    23.570
  61.240	     75.00	    25.000
  61.260	     66.67	    23.570
  61.280	    100.00	    28.868
  61.300	     66.67	    23.570
  61.320	    116.67	    31.180
  61.340	     58.33	    22.048
  61.360	     58.33	    22.048
  61.380	     66.67	    23.570
  61.400	     58.33	    22.048
  61.420	     91.67	    27.639
  61.440	     33.33	    16.667
  61.460	    100.00	    28.868
  61.480	     58.33	    22.048
  61.500	     58.33	    22.048
  61.520	     58.33	    22.048
  61.540	     91.67	    27.639
  61.560	     83.33	    26.352
  61.580	    125.00	    32.275
  61.600	      8.33	     8.333
  61.620	    100.00	    28.868
  61.640	    133.33	    33.333
  61.660	    116.67	    31.180
  61.680	     75.00	    25.000
  61.700	     75.00	    25.000
  61.720	     83.33	    26.352
  61.740	     66.67	    23.570
  61.760	     83.33	    26.352
  61.780	     58.33	    22.048
  61.800	    116.67	    31.180
  61.820	    116.67	    31.180
  61.840	     91.67	    27.639
  61.860	    100.00	    28.868
  61.880	     33.33	    16.667
  61.900	     66.67	    23.570
  61.920	     75.00	    25.000
  61.940	     91.67	    27.639
  61.960	    100.00	    28.868
  61.980	    116.67	    31.180
  62.000	     41.67	    18.634
  62.020	     91.67	    27.639
  62.040	     91.67	    27.639
  62.060	     50.00	    20.412
  62.080	     91.67	    27.639
  62.100	    116.67	    31.180
  62.120	    108.33	    30.046
  62.140	    108.33	    30.046
  62.160	     50.00	    20.412
  62.180	     50.00	    20.412
  62.200	     75.00	    25.000
  62.220	     50.00	    20.412
  62.240	    141.67	    34.359
  62.260	     58.33	    22.048
  62.280	     58.33	    22.048
  62.300	    100.00	    28.868
  62.320	     91.67	    27.639
  62.340	     91.67	    27.639
  62.360	     83.33	    26.352
  62.380	     83.33	    26.352
  62.400	    108.33	    30.046
  62.420	     41.67	    18.634
  62.440	     50.00	    20.412
  62.460	    116.67	    31.180
  62.480	     91.67	    27.639
  62.500	     41.67	    18.634
  62.520	    100.00	    28.868
  62.540	    100.00	    28.868
  62.560	    133.33	    33.333
  62.580	    125.00	    32.275
  62.600	    116.67	    31.180
  62.620	    125.00	    32.275
  62.640	    108.33	    30.046
  62.660	    100.00	    28.868
  62.680	     75.00	    25.000
  62.700	    116.67	    31.180
  62.720	    133.33	    33.333
  62.740	    100.00	    28.868
  62.760	    216.67	    42.492
  62.780	    158.33	    36.324
  62.800	    216.67	    42.492
  62.820	    300.00	    50.000
  62.840	    216.67	    42.492
  62.860	    191.67	    39.965
  62.880	    166.67	    37.268
  62.900	    316.67	    51.370
  62.920	    241.67	    44.876
  62.940	    350.00	    54.006
  62.960	    308.33	    50.690
  62.980	    283.33	    48.591
  63.000	    200.00	    40.825
  63.020	    216.67	    42.492
  63.040	    183.33	    39.087
  63.060	    233.33	    44.096
  63.080	    158.33	    36.324
  63.100	    208.33	    41.667
  63.120	    191.67	    39.965
  63.140	    150.00	    35.355
  63.160	    125.00	    32.275
  63.180	    208.33	    41.667
  63.200	    158.33	    36.324
  63.220	    166.67	    37.268
  63.240	    125.00	    32.275
  63.260	     83.33	    26.352
  63.280	     75.00	    25.000
  63.300	     41.67	    18.634
  63.320	    100.00	    28.868
  63.340	     83.33	    26.352
  63.360	     75.00	    25.000
  63.380	     66.67	    23.570
  63.400	    125.00	    32.275
  63.420	    108.33	    30.046
  63.440	     91.67	    27.639
  63.460	    141.67	    34.359
  63.480	     75.00	    25.000
  63.500	     83.33	    26.352
  63.520	    100.00	    28.868
  63.540	    125.00	    32.275
  63.560	     75.00	    25.000
  63.580	    108.33	    30.046
  63.600	    108.33	    30.046
  63.620	     83.33	    26.352
  63.640	     50.00	    20.412
  63.660	     66.67	    23.570
  63.680	     83.33	    26.352
  63.700	     50.00	    20.412
  63.720	    150.00	    35.355
  63.740	     83.33	    26.352
  63.760	    100.00	    28.868
  63.780	     91.67	    27.639
  63.800	     75.00	    25.000
  63.820	     50.00	    20.412
  63.840	    133.33	    33.333
  63.860	     66.67	    23.570
  63.880	    100.00	    28.868
  63.900	     66.67	    23.570
  63.920	     83.33	    26.352
  63.940	     83.33	    26.352
  63.960	     91.67	    27.639
  63.980	    108.33	    30.046
  64.000	     66.67	    23.570
  64.020	    133.33	    33.333
  64.040	     66.67	    23.570
  64.060	     83.33	    26.352
  64.080	     91.67	    27.639
  64.100	     91.67	    27.639
  64.120	     66.67	    23.570
  64.140	    141.67	    34.359
  64.160	     75.00	    25.000
  64.180	     83.33	    26.352
  64.200	     66.67	    23.570
  64.220	    100.00	    28.868
  64.240	     83.33	    26.352
  64.260	     58.33	    22.048
  64.280	     75.00	    25.000
  64.300	     58.33	    22.048
  64.320	    116.67	    31.180
  64.340	     66.67	    23.570
  64.360	    133.33	    33.333
  64.380	     41.67	    18.634
  64.400	     75.00	    25.000
  64.420	     66.67	    23.570
  64.440	     41.67	    18.634
  64.460	     91.67	    27.639
  64.480	     91.67	    27.639
  64.500	     58.33	    22.048
  64.520	     75.00	    25.000
  64.540	     91.67	    27.639
  64.560	    108.33	    30.046
  64.580	    158.33	    36.324
  64.600	     66.67	    23.570
  64.620	     58.33	    22.048
  64.640	     91.67	    27.639
  64.660	    116.67	    31.180
  64.680	     58.33	    22.048
  64.700	     58.33	    22.048
  64.720	     83.33	    26.352
  64.740	     75.00	    25.000
  64.760	     91.67	    27.639
  64.780	    141.67	    34.359
  64.800	     75.00	    25.000
  64.820	     41.67	    18.634
  64.840	     66.67	    23.570
  64.860	     91.67	    27.639
  64.880	    141.67	    34.359
  64.900	     66.67	    23.570
  64.920	    116.67	    31.180
  64.940	    133.33	    33.333
  64.960	     75.00	    25.000
  64.980	     58.33	    22.048
  65.000	     83.33	    26.352
  65.020	    125.00	    32.275
  65.040	     50.00	    20.412
  65.060	    116.67	    31.180
  65.080	     83.33	    26.352
  65.100	     66.67	    23.570
  65.120	    100.00	    28.868
  65.140	    108.33	    30.046
  65.160	     58.33	    22.048
  65.180	    125.00	    32.275
  65.200	     91.67	    27.639
  65.220	     66.67	    23.570
  65.240	    100.00	    28.868
  65.260	     83.33	    26.352
  65.280	     66.67	    23.570
  65.300	     66.67	    23.570
  65.320	    125.00	    32.275
  65.340	     66.67	    23.570
  65.360	     75.00	    25.000
  65.380	     50.00	    20.412
  65.400	     83.33	    26.352
  65.420	     75.00	    25.000
  65.440	     50.00	    20.412
  65.460	     91.67	    27.639
  65.480	    141.67	    34.359
  65.500	    125.00	    32.275
  65.520	     58.33	    22.048
  65.540	     83.33	    26.352
  65.560	     91.67	    27.639
  65.580	    100.00	    28.868
  65.600	     41.67	    18.634
  65.620	     50.00	    20.412
  65.640	     50.00	    20.412
  65.660	     83.33	    26.352
  65.680	     91.67	    27.639
  65.700	     33.33	    16.667
  65.720	    108.33	    30.046
  65.740	     66.67	    23.570
  65.760	     83.33	    26.352
  65.780	     66.67	    23.570
  65.800	     50.00	    20.412
  65.820	     91.67	    27.639
  65.840	     75.00	    25.000
  65.860	     75.00	    25.000
  65.880	     75.00	    25.000
  65.900	    100.00	    28.868
  65.920	    100.00	    28.868
  65.940	     91.67	    27.639
  65.960	     75.00	    25.000
  65.980	    100.00	    28.868
  66.000	     66.67	    23.570
  66.020	     50.00	    20.412
  66.040	    100.00	    28.868
  66.060	    100.00	    28.868
  66.080	    100.00	    28.868
  66.100	     83.33	    26.352
  66.120	    100.00	    28.868
  66.140	    125.00	    32.275
  66.160	     41.67	    18.634
  66.180	     83.33	    26.352
  66.200	     66.67	    23.570
  66.220	     91.67	    27.639
  66.240	     58.33	    22.048
  66.260	    116.67	    31.180
  66.280	    100.00	    28.868
  66.300	     83.33	    26.352
  66.320	    108.33	    30.046
  66.340	     41.67	    18.634
  66.360	     75.00	    25.000
  66.380	    108.33	    30.046
  66.400	     91.67	    27.639
  66.420	     33.33	    16.667
  66.440	    141.67	    34.359
  66.460	     83.33	    26.352
  66.480	    100.00	    28.868
  66.500	     50.00	    20.412
  66.520	     58.33	    22.048
  66.540	    108.33	    30.046
  66.560	     50.00	    20.412
  66.580	     75.00	    25.000
  66.600	    125.00	    32.275
  66.620	     91.67	    27.639
  66.640	     83.33	    26.352
  66.660	    116.67	    31.180
  66.680	     75.00	    25.000
  66.700	    108.33	    30.046
  66.720	     58.33	    22.048
  66.740	     91.67	    27.639
  66.760	     83.33	    26.352
  66.780	     83.33	    26.352
  66.800	     83.33	    26.352
  66.820	     41.67	    18.634
  66.840	     50.00	    20.412
  66.860	    125.00	    32.275
  66.880	     83.33	    26.352
  66.900	     91.67	    27.639
  66.920	    100.00	    28.868
  66.940	    125.00	    32.275
  66.960	    116.67	    31.180
  66.980	     75.00	    25.000
  67.000	     75.00	    25.000
  67.020	    100.00	    28.868
  67.040	     91.67	    27.639
  67.060	     83.33	    26.352
  67.080	     66.67	    23.570
  67.100	     83.33	    26.352
  67.120	    116.67	    31.180
  67.140	     83.33	    26.352
  67.160	     58.33	    22.048
  67.180	     75.00	    25.000
  67.200	     50.00	    20.412
  67.220	     91.67	    27.639
  67.240	     83.33	    26.352
  67.260	     50.00	    20.412
  67.280	     66.67	    23.570
  67.300	     41.67	    18.634
  67.320	     75.00	    25.000
  67.340	     50.00	    20.412
  67.360	     75.00	    25.000
  67.380	     91.67	    27.639
  67.400	     58.33	    22.048
  67.420	     41.67	    18.634
  67.440	     91.67	    27.639
  67.460	     50.00	    20.412
  67.480	     66.67	    23.570
  67.500	     91.67	    27.639
  67.520	    100.00	    28.868
  67.540	     58.33	    22.048
  67.560	     33.33	    16.667
  67.580	     66.67	    23.570
  67.600	     91.67	    27.639
  67.620	     75.00	    25.000
  67.640	     66.67	    23.570
  67.660	    108.33	    30.046
  67.680	     91.67	    27.639
  67.700	    116.67	    31.180
  67.720	    125.00	    32.275
  67.740	     83.33	    26.352
  67.760	     91.67	    27.639
  67.780	    125.00	    32.275
  67.800	     75.00	    25.000
  67.820	    100.00	    28.868
  67.840	    116.67	    31.180
  67.860	    100.00	    28.868
  67.880	     83.33	    26.352
  67.900	     75.00	    25.000
  67.920	     50.00	    20.412
  67.940	     83.33	    26.352
  67.960	    133.33	    33.333
  67.980	    108.33	    30.046
  68.000	    116.67	    31.180
  68.020	     91.67	    27.639
  68.040	     58.33	    22.048
  68.060	     75.00	    25.000
  68.080	     91.67	    27.639
  68.100	     83.33	    26.352
  68.120	     66.67	    23.570
  68.140	     91.67	    27.639
  68.160	     75.00	    25.000
  68.180	     75.00	    25.000
  68.200	     83.33	    26.352
  68.220	     66.67	    23.570
  68.240	    100.00	    28.868
  68.260	     58.33	    22.048
  68.280	     66.67	    23.570
  68.300	     41.67	    18.634
  68.320	     83.33	    26.352
  68.340	     83.33	    26.352
  68.360	    150.00	    35.355
  68.380	     66.67	    23.570
  68.400	     91.67	    27.639
  68.420	     66.67	    23.570
  68.440	    100.00	    28.868
  68.460	     66.67	    23.570
  68.480	    100.00	    28.868
  68.500	    100.00	    28.868
  68.520	     50.00	    20.412
  68.540	     83.33	    26.352
  68.560	    108.33	    30.046
  68.580	     75.00	    25.000
  68.600	    116.67	    31.180
  68.620	    108.33	    30.046
  68.640	    108.33	    30.046
  68.660	    100.00	    28.868
  68.680	     91.67	    27.639
  68.700	    108.33	    30.046
  68.720	     91.67	    27.639
  68.740	     58.33	    22.048
  68.760	     50.00	    20.412
  68.780	     58.33	    22.048
  68.800	     58.33	    22.048
  68.820	     41.67	    18.634
  68.840	     91.67	    27.639
  68.860	     66.67	    23.570
  68.880	     91.67	    27.639
  68.900	     66.67	    23.570
  68.920	     66.67	    23.570
  68.940	    141.67	    34.359
  68.960	     50.00	    20.412
  68.980	     91.67	    27.639
  69.000	     83.33	    26.352
  69.020	     50.00	    20.412
  69.040	    100.00	    28.868
  69.060	    125.00	    32.275
  69.080	     58.33	    22.048
  69.100	     50.00	    20.412
  69.120	    141.67	    34.359
  69.140	     91.67	    27.639
  69.160	    108.33	    30.046
  69.180	     83.33	    26.352
  69.200	    150.00	    35.355
  69.220	    116.67	    31.180
  69.240	    108.33	    30.046
  69.260	     58.33	    22.048
  69.280	     66.67	    23.570
  69.300	    100.00	    28.868
  69.320	     50.00	    20.412
  69.340	     75.00	    25.000
  69.360	     83.33	    26.352
  69.380	     33.33	    16.667
  69.400	     91.67	    27.639
  69.420	     91.67	    27.639
  69.440	     50.00	    20.412
  69.460	     91.67	    27.639
  69.480	     58.33	    22.048
  69.500	     66.67	    23.570
  69.520	     66.67	    23.570
  69.540	    100.00	    28.868
  69.560	    166.67	    37.268
  69.580	     91.67	    27.639
  69.600	     91.67	    27.639
  69.620	     91.67	    27.639
  69.640	     66.67	    23.570
  69.660	     91.67	    27.639
  69.680	    100.00	    28.868
  69.700	     83.33	    26.352
  69.720	     91.67	    27.639
  69.740	     66.67	    23.570
  69.760	     41.67	    18.634
  69.780	     83.33	    26.352
  69.800	    116.67	    31.180
  69.820	     58.33	    22.048
  69.840	     50.00	    20.412
  69.860	     66.67	    23.570
  69.880	     58.33	    22.048
  69.900	     50.00	    20.412
  69.920	    116.67	    31.180
  69.940	     66.67	    23.570
  69.960	    116.67	    31.180
  69.980	     83.33	    26.352
  70.000	     75.00	    25.000
  70.020	     91.67	    27.639
  70.040	    108.33	    30.046
  70.060	    116.67	    31.180
  70.080	     83.33	    26.352
  70.100	    100.00	    28.868
  70.120	     75.00	    25.000
  70.140	    125.00	    32.275
  70.160	     58.33	    22.048
  70.180	     66.67	    23.570
  70.200	     91.67	    27.639
  70.220	    116.67	    31.180
  70.240	     66.67	    23.570
  70.260	    125.00	    32.275
  70.280	    100.00	    28.868
  70.300	    100.00	    28.868
  70.320	     75.00	    25.000
  70.340	    108.33	    30.046
  70.360	     91.67	    27.639
  70.380	    108.33	    30.046
  70.400	     75.00	    25.000
  70.420	    100.00	    28.868
  70.440	     91.67	    27.639
  70.460	    158.33	    36.324
  70.480	    191.67	    39.965
  70.500	    166.67	    37.268
  70.520	    191.67	    39.965
  70.540	    266.67	    47.140
  70.560	    258.33	    46.398
  70.580	    233.33	    44.096
  70.600	    325.00	    52.042
  70.620	    291.67	    49.301
  70.640	    241.67	    44.876
  70.660	    275.00	    47.871
  70.680	    408.33	    58.333
  70.700	    258.33	    46.398
  70.720	    158.33	    36.324
  70.740	    208.33	    41.667
  70.760	    241.67	    44.876
  70.780	    183.33	    39.087
  70.800	    283.33	    48.591
  70.820	    325.00	    52.042
  70.840	    158.33	    36.324
  70.860	    166.67	    37.268
  70.880	    166.67	    37.268
  70.900	    158.33	    36.324
  70.920	    133.33	    33.333
  70.940	    100.00	    28.868
  70.960	    133.33	    33.333
  70.980	    150.00	    35.355
  71.000	    100.00	    28.868
  71.020	    133.33	    33.333
  71.040	     50.00	    20.412
  71.060	    100.00	    28.868
  71.080	     91.67	    27.639
  71.100	    100.00	    28.868
  71.120	     41.67	    18.634
  71.140	     91.67	    27.639
  71.160	     91.67	    27.639
  71.180	     41.67	    18.634
  71.200	    116.67	    31.180
  71.220	    100.00	    28.868
  71.240	    133.33	    33.333
  71.260	     83.33	    26.352
  71.280	     83.33	    26.352
  71.300	    108.33	    30.046
  71.320	     83.33	    26.352
  71.340	    116.67	    31.180
  71.360	    108.33	    30.046
  71.380	    100.00	    28.868
  71.400	    100.00	    28.868
  71.420	    108.33	    30.046
  71.440	     91.67	    27.639
  71.460	     83.33	    26.352
  71.480	     83.33	    26.352
  71.500	    108.33	    30.046
  71.520	    100.00	    28.868
  71.540	    116.67	    31.180
  71.560	    100.00	    28.868
  71.580	    100.00	    28.868
  71.600	    150.00	    35.355
  71.620	     83.33	    26.352
  71.640	    116.67	    31.180
  71.660	     75.00	    25.000
  71.680	    116.67	    31.180
  71.700	     66.67	    23.570
  71.720	     66.67	    23.570
  71.740	     66.67	    23.570
  71.760	     50.00	    20.412
  71.780	    100.00	    28.868
  71.800	     50.00	    20.412
  71.820	     41.67	    18.634
  71.840	     50.00	    20.412
  71.860	     58.33	    22.048
  71.880	     66.67	    23.570
  71.900	    116.67	    31.180
  71.920	     50.00	    20.412
  71.940	     50.00	    20.412
  71.960	     50.00	    20.412
  71.980	    108.33	    30.046
  72.000	     58.33	    22.048
  72.020	    108.33	    30.046
  72.040	     50.00	    20.412
  72.060	     83.33	    26.352
  72.080	     83.33	    26.352
  72.100	     91.67	    27.639
  72.120	     58.33	    22.048
  72.140	    100.00	    28.868
  72.160	     66.67	    23.570
  72.180	     50.00	    20.412
  72.200	     66.67	    23.570
  72.220	    116.67	    31.180
  72.240	     58.33	    22.048
  72.260	     83.33	    26.352
  72.280	     66.67	    23.570
  72.300	    100.00	    28.868
  72.320	    125.00	    32.275
  72.340	     58.33	    22.048
  72.360	     33.33	    16.667
  72.380	    125.00	    32.275
  72.400	     25.00	    14.434
  72.420	    133.33	    33.333
  72.440	     91.67	    27.639
  72.460	     33.33	    16.667
  72.480	     83.33	    26.352
  72.500	     83.33	    26.352
  72.520	     83.33	    26.352
  72.540	     66.67	    23.570
  72.560	     91.67	    27.639
  72.580	     66.67	    23.570
  72.600	     41.67	    18.634
  72.620	    108.33	    30.046
  72.640	     91.67	    27.639
  72.660	     83.33	    26.352
  72.680	    125.00	    32.275
  72.700	     75.00	    25.000
  72.720	    116.67	    31.180
  72.740	    108.33	    30.046
  72.760	     91.67	    27.639
  72.780	     83.33	    26.352
  72.800	     58.33	    22.048
  72.820	     66.67	    23.570
  72.840	     58.33	    22.048
  72.860	     91.67	    27.639
  72.880	    116.67	    31.180
  72.900	    141.67	    34.359
  72.920	     50.00	    20.412
  72.940	     50.00	    20.412
  72.960	     83.33	    26.352
  72.980	     66.67	    23.570
  73.000	    100.00	    28.868
  73.020	     58.33	    22.048
  73.040	    100.00	    28.868
  73.060	     66.67	    23.570
  73.080	     91.67	    27.639
  73.100	     91.67	    27.639
  73.120	     91.67	    27.639
  73.140	     66.67	    23.570
  73.160	    108.33	    30.046
  73.180	     33.33	    16.667
  73.200	    100.00	    28.868
  73.220	     50.00	    20.412
  73.240	     83.33	    26.352
  73.260	    133.33	    33.333
  73.280	     83.33	    26.352
  73.300	    125.00	    32.275
  73.320	    125.00	    32.275
  73.340	     91.67	    27.639
  73.360	     58.33	    22.048
  73.380	     58.33	    22.048
  73.400	    108.33	    30.046
  73.420	     75.00	    25.000
  73.440	     91.67	    27.639
  73.460	     75.00	    25.000
  73.480	    108.33	    30.046
  73.500	     75.00	    25.000
  73.520	     66.67	    23.570
  73.540	     91.67	    27.639
  73.560	     91.67	    27.639
  73.580	     91.67	    27.639
  73.600	     41.67	    18.634
  73.620	    108.33	    30.046
  73.640	    108.33	    30.046
  73.660	     66.67	    23.570
  73.680	     58.33	    22.048
  73.700	     66.67	    23.570
  73.720	     75.00	    25.000
  73.740	     83.33	    26.352
  73.760	    133.33	    33.333
  73.780	     75.00	    25.000
  73.800	    100.00	    28.868
  73.820	     75.00	    25.000
  73.840	     50.00	    20.412
  73.860	    125.00	    32.275
  73.880	    125.00	    32.275
  73.900	    133.33	    33.333
  73.920	    125.00	    32.275
  73.940	     58.33	    22.048
  73.960	     66.67	    23.570
  73.980	    116.67	    31.180
  74.000	     91.67	    27.639
  74.020	    141.67	    34.359
  74.040	    100.00	    28.868
  74.060	    125.00	    32.275
  74.080	    116.67	    31.180
  74.100	     83.33	    26.352
  74.120	    108.33	    30.046
  74.140	    100.00	    28.868
  74.160	    150.00	    35.355
  74.180	    108.33	    30.046
  74.200	    133.33	    33.333
  74.220	    116.67	    31.180
  74.240	     83.33	    26.352
  74.260	    116.67	    31.180
  74.280	    133.33	    33.333
  74.300	     91.67	    27.639
  74.320	    150.00	    35.355
  74.340	    116.67	    31.180
  74.360	    141.67	    34.359
  74.380	     91.67	    27.639
  74.400	     58.33	    22.048
  74.420	     91.67	    27.639
  74.440	    125.00	    32.275
  74.460	     50.00	    20.412
  74.480	     50.00	    20.412
  74.500	     66.67	    23.570
  74.520	     75.00	    25.000
  74.540	     83.33	    26.352
  74.560	     66.67	    23.570
  74.580	    133.33	    33.333
  74.600	     91.67	    27.639
  74.620	     83.33	    26.352
  74.640	     83.33	    26.352
  74.660	     83.33	    26.352
  74.680	     58.33	    22.048
  74.700	    100.00	    28.868
  74.720	     41.67	    18.634
  74.740	    116.67	    31.180
  74.760	     91.67	    27.639
  74.780	     91.67	    27.639
  74.800	     91.67	    27.639
  74.820	     66.67	    23.570
  74.840	     58.33	    22.048
  74.860	    100.00	    28.868
  74.880	     58.33	    22.048
  74.900	    100.00	    28.868
  74.920	    133.33	    33.333
  74.940	     50.00	    20.412
  74.960	    100.00	    28.868
  74.980	     50.00	    20.412
  75.000	    108.33	    30.046
  75.020	    116.67	    31.180
  75.040	     91.67	    27.639
  75.060	     83.33	    26.352
  75.080	     58.33	    22.048
  75.100	    100.00	    28.868
  75.120	    133.33	    33.333
  75.140	     66.67	    23.570
  75.160	     58.33	    22.048
  75.180	    133.33	    33.333
  75.200	     75.00	    25.000
  75.220	     58.33	    22.048
  75.240	     33.33	    16.667
  75.260	     50.00	    20.412
  75.280	     58.33	    22.048
  75.300	     91.67	    27.639
  75.320	     75.00	    25.000
  75.340	     50.00	    20.412
  75.360	     83.33	    26.352
  75.380	    116.67	    31.180
  75.400	     66.67	    23.570
  75.420	     91.67	    27.639
  75.440	    108.33	    30.046
  75.460	     41.67	    18.634
  75.480	    108.33	    30.046
  75.500	     75.00	    25.000
  75.520	     33.33	    16.667
  75.540	    116.67	    31.180
  75.560	     75.00	    25.000
  75.580	     50.00	    20.412
  75.600	    108.33	    30.046
  75.620	    108.33	    30.046
  75.640	    100.00	    28.868
  75.660	     66.67	    23.570
  75.680	     75.00	    25.000
  75.700	    100.00	    28.868
  75.720	     83.33	    26.352
  75.740	     41.67	    18.634
  75.760	    100.00	    28.868
  75.780	    100.00	    28.868
  75.800	     75.00	    25.000
  75.820	     83.33	    26.352
  75.840	    116.67	    31.180
  75.860	     83.33	    26.352
  75.880	    141.67	    34.359
  75.900	    116.67	    31.180
  75.920	     75.00	    25.000
  75.940	     83.33	    26.352
  75.960	     83.33	    26.352
  75.980	    133.33	    33.333
  76.000	    116.67	    31.180
  76.020	    141.67	    34.359
  76.040	    141.67	    34.359
  76.060	    141.67	    34.359
  76.080	    208.33	    41.667
  76.100	    191.67	    39.965
  76.120	    283.33	    48.591
  76.140	    275.00	    47.871
  76.160	    366.67	    55.277
  76.180	    300.00	    50.000
  76.200	    391.67	    57.130
  76.220	    325.00	    52.042
  76.240	    250.00	    45.644
  76.260	    225.00	    43.301
  76.280	    208.33	    41.667
  76.300	    275.00	    47.871
  76.320	    208.33	    41.667
  76.340	    200.00	    40.825
  76.360	    241.67	    44.876
  76.380	    200.00	    40.825
  76.400	    208.33	    41.667
  76.420	    266.67	    47.140
  76.440	    158.33	    36.324
  76.460	    158.33	    36.324
  76.480	    116.67	    31.180
  76.500	    158.33	    36.324
  76.520	    125.00	    32.275
  76.540	    100.00	    28.868
  76.560	    133.33	    33.333
  76.580	     83.33	    26.352
  76.600	    100.00	    28.868
  76.620	     83.33	    26.352
  76.640	    141.67	    34.359
  76.660	    125.00	    32.275
  76.680	    133.33	    33.333
  76.700	    100.00	    28.868
  76.720	     75.00	    25.000
  76.740	     91.67	    27.639
  76.760	     66.67	    23.570
  76.780	     66.67	    23.570
  76.800	     75.00	    25.000
  76.820	     91.67	    27.639
  76.840	    100.00	    28.868
  76.860	     83.33	    26.352
  76.880	    100.00	    28.868
  76.900	    100.00	    28.868
  76.920	    116.67	    31.180
  76.940	    116.67	    31.180
  76.960	     75.00	    25.000
  76.980	     75.00	    25.000
  77.000	     83.33	    26.352
  77.020	     75.00	    25.000
  77.040	    125.00	    32.275
  77.060	    100.00	    28.868
  77.080	    116.67	    31.180
  77.100	    116.67	    31.180
  77.120	     75.00	    25.000
  77.140	    100.00	    28.868
  77.160	    100.00	    28.868
  77.180	    100.00	    28.868
  77.200	    183.33	    39.087
  77.220	    116.67	    31.180
  77.240	    175.00	    38.188
  77.260	    166.67	    37.268
  77.280	    258.33	    46.398
  77.300	    233.33	    44.096
  77.320	    283.33	    48.591
  77.340	    275.00	    47.871
  77.360	    250.00	    45.644
  77.380	    241.67	    44.876
  77.400	    200.00	    40.825
  77.420	    166.67	    37.268
  77.440	    250.00	    45.644
  77.460	    158.33	    36.324
  77.480	    116.67	    31.180
  77.500	    158.33	    36.324
  77.520	    150.00	    35.355
  77.540	    225.00	    43.301
  77.560	    125.00	    32.275
  77.580	    108.33	    30.046
  77.600	    108.33	    30.046
  77.620	    200.00	    40.825
  77.640	    150.00	    35.355
  77.660	    125.00	    32.275
  77.680	    141.67	    34.359
  77.700	     75.00	    25.000
  77.720	     75.00	    25.000
  77.740	    133.33	    33.333
  77.760	     75.00	    25.000
  77.780	     41.67	    18.634
  77.800	     66.67	    23.570
  77.820	     58.33	    22.048
  77.840	    116.67	    31.180
  77.860	     58.33	    22.048
  77.880	     83.33	    26.352
  77.900	    133.33	    33.333
  77.920	     50.00	    20.412
  77.940	     50.00	    20.412
  77.960	     91.67	    27.639
  77.980	     83.33	    26.352
  78.000	     75.00	    25.000
  78.020	     58.33	    22.048
  78.040	     83.33	    26.352
  78.060	     91.67	    27.639
  78.080	    100.00	    28.868
  78.100	     33.33	    16.667
  78.120	     91.67	    27.639
  78.140	    100.00	    28.868
  78.160	     41.67	    18.634
  78.180	     66.67	    23.570
  78.200	     83.33	    26.352
  78.220	     83.33	    26.352
  78.240	     41.67	    18.634
  78.260	     41.67	    18.634
  78.280	    100.00	    28.868
  78.300	    125.00	    32.275
  78.320	     50.00	    20.412
  78.340	     58.33	    22.048
  78.360	     66.67	    23.570
  78.380	     66.67	    23.570
  78.400	     83.33	    26.352
  78.420	     66.67	    23.570
  78.440	     66.67	    23.570
  78.460	    100.00	    28.868
  78.480	     58.33	    22.048
  78.500	     50.00	    20.412
  78.520	     91.67	    27.639
  78.540	     91.67	    27.639
  78.560	     83.33	    26.352
  78.580	     41.67	    18.634
  78.600	     83.33	    26.352
  78.620	    158.33	    36.324
  78.640	    100.00	    28.868
  78.660	    125.00	    32.275
  78.680	     41.67	    18.634
  78.700	     91.67	    27.639
  78.720	     58.33	    22.048
  78.740	     66.67	    23.570
  78.760	     66.67	    23.570
  78.780	     58.33	    22.048
  78.800	     75.00	    25.000
  78.820	     50.00	    20.412
  78.840	     66.67	    23.570
  78.860	     66.67	    23.570
  78.880	    133.33	    33.333
  78.900	     50.00	    20.412
  78.920	     58.33	    22.048
  78.940	     66.67	    23.570
  78.960	     91.67	    27.639
  78.980	     66.67	    23.570
  79.000	     75.00	    25.000
  79.020	    108.33	    30.046
  79.040	     83.33	    26.352
  79.060	     91.67	    27.639
  79.080	     75.00	    25.000
  79.100	    100.00	    28.868
  79.120	     25.00	    14.434
  79.140	    125.00	    32.275
  79.160	    125.00	    32.275
  79.180	    100.00	    28.868
  79.200	     58.33	    22.048
  79.220	     66.67	    23.570
  79.240	     66.67	    23.570
  79.260	     33.33	    16.667
  79.280	     75.00	    25.000
  79.300	    125.00	    32.275
  79.320	    100.00	    28.868
  79.340	    125.00	    32.275
  79.360	     83.33	    26.352
  79.380	     75.00	    25.000
  79.400	    158.33	    36.324
  79.420	     50.00	    20.412
  79.440	     41.67	    18.634
  79.460	     75.00	    25.000
  79.480	    100.00	    28.868
  79.500	     33.33	    16.667
  79.520	    116.67	    31.180
  79.540	     91.67	    27.639
  79.560	     83.33	    26.352
  79.580	     83.33	    26.352
  79.600	     83.33	    26.352
  79.620	     91.67	    27.639
  79.640	    100.00	    28.868
  79.660	    108.33	    30.046
  79.680	    116.67	    31.180
  79.700	     75.00	    25.000
  79.720	     75.00	    25.000
  79.740	     66.67	    23.570
  79.760	    100.00	    28.868
  79.780	     75.00	    25.000
  79.800	     66.67	    23.570
  79.820	     33.33	    16.667
  79.840	    100.00	    28.868
  79.860	    183.33	    39.087
  79.880	     91.67	    27.639
  79.900	     58.33	    22.048
  79.920	     66.67	    23.570
  79.940	     83.33	    26.352
  79.960	    100.00	    28.868
  79.980	    108.33	    30.046
  80.000	     75.00	    25.000
  80.020	     91.67	    27.639
  80.040	     83.33	    26.352
  80.060	    108.33	    30.046
  80.080	    100.00	    28.868
  80.100	     50.00	    20.412
  80.120	     91.67	    27.639
  80.140	    125.00	    32.275
  80.160	     91.67	    27.639
  80.180	     58.33	    22.048
  80.200	     16.67	    11.785
  80.220	    125.00	    32.275
  80.240	     91.67	    27.639
  80.260	     83.33	    26.352
  80.280	     83.33	    26.352
  80.300	     66.67	    23.570
  80.320	     75.00	    25.000
  80.340	     83.33	    26.352
  80.360	     66.67	    23.570
  80.380	     66.67	    23.570
  80.400	    116.67	    31.180
  80.420	     66.67	    23.570
  80.440	    108.33	    30.046
  80.460	     66.67	    23.570
  80.480	     58.33	    22.048
  80.500	     83.33	    26.352
  80.520	     58.33	    22.048
  80.540	     25.00	    14.434
  80.560	    166.67	    37.268
  80.580	    108.33	    30.046
  80.600	     58.33	    22.048
  80.620	    141.67	    34.359
  80.640	     83.33	    26.352
  80.660	     83.33	    26.352
  80.680	     58.33	    22.048
  80.700	     50.00	    20.412
  80.720	     58.33	    22.048
  80.740	     83.33	    26.352
  80.760	     91.67	    27.639
  80.780	     58.33	    22.048
  80.800	    100.00	    28.868
  80.820	     91.67	    27.639
  80.840	     91.67	    27.639
  80.860	    100.00	    28.868
  80.880	    116.67	    31.180
  80.900	     75.00	    25.000
  80.920	     91.67	    27.639
  80.940	     83.33	    26.352
  80.960	    100.00	    28.868
  80.980	     75.00	    25.000
  81.000	     91.67	    27.639
  81.020	    108.33	    30.046
  81.040	    108.33	    30.046
  81.060	     83.33	    26.352
  81.080	     91.67	    27.639
  81.100	     58.33	    22.048
  81.120	     66.67	    23.570
  81.140	     50.00	    20.412
  81.160	     75.00	    25.000
  81.180	     75.00	    25.000
  81.200	     33.33	    16.667
  81.220	     91.67	    27.639
  81.240	     58.33	    22.048
  81.260	    100.00	    28.868
  81.280	     66.67	    23.570
  81.300	    108.33	    30.046
  81.320	    116.67	    31.180
  81.340	     50.00	    20.412
  81.360	    100.00	    28.868
  81.380	     75.00	    25.000
  81.400	     66.67	    23.570
  81.420	     66.67	    23.570
  81.440	     83.33	    26.352
  81.460	     75.00	    25.000
  81.480	     83.33	    26.352
  81.500	    100.00	    28.868
  81.520	     83.33	    26.352
  81.540	     91.67	    27.639
  81.560	     58.33	    22.048
  81.580	     91.67	    27.639
  81.600	    100.00	    28.868
  81.620	     66.67	    23.570
  81.640	     83.33	    26.352
  81.660	     58.33	    22.048
  81.680	     58.33	    22.048
  81.700	     58.33	    22.048
  81.720	    116.67	    31.180
  81.740	     50.00	    20.412
  81.760	     33.33	    16.667
  81.780	    100.00	    28.868
  81.800	     66.67	    23.570
  81.820	    116.67	    31.180
  81.840	     50.00	    20.412
  81.860	     58.33	    22.048
  81.880	     58.33	    22.048
  81.900	    141.67	    34.359
  81.920	     66.67	    23.570
  81.940	     50.00	    20.412
  81.960	     83.33	    26.352
  81.980	    100.00	    28.868
  82.000	    125.00	    32.275
  82.020	     41.67	    18.634
  82.040	     66.67	    23.570
  82.060	     83.33	    26.352
  82.080	    116.67	    31.180
  82.100	     50.00	    20.412
  82.120	    125.00	    32.275
  82.140	    108.33	    30.046
  82.160	     91.67	    27.639
  82.180	    158.33	    36.324
  82.200	     75.00	    25.000
  82.220	    133.33	    33.333
  82.240	    100.00	    28.868
  82.260	    116.67	    31.180
  82.280	    116.67	    31.180
  82.300	     91.67	    27.639
  82.320	    133.33	    33.333
  82.340	     75.00	    25.000
  82.360	     66.67	    23.570
  82.380	     83.33	    26.352
  82.400	     58.33	    22.048
  82.420	     75.00	    25.000
  82.440	    100.00	    28.868
  82.460	     83.33	    26.352
  82.480	     75.00	    25.000
  82.500	     91.67	    27.639
  82.520	     58.33	    22.048
  82.540	    125.00	    32.275
  82.560	     58.33	    22.048
  82.580	     50.00	    20.412
  82.600	     75.00	    25.000
  82.620	    108.33	    30.046
  82.640	     91.67	    27.639
  82.660	     75.00	    25.000
  82.680	     83.33	    26.352
  82.700	     75.00	    25.000
  82.720	     41.67	    18.634
  82.740	     91.67	    27.639
  82.760	     75.00	    25.000
  82.780	     83.33	    26.352
  82.800	     66.67	    23.570
  82.820	    108.33	    30.046
  82.840	    116.67	    31.180
  82.860	    100.00	    28.868
  82.880	     58.33	    22.048
  82.900	     91.67	    27.639
  82.920	    100.00	    28.868
  82.940	     66.67	    23.570
  82.960	     83.33	    26.352
  82.980	    100.00	    28.868
  83.000	    116.67	    31.180
  83.020	    116.67	    31.180
  83.040	     83.33	    26.352
  83.060	     58.33	    22.048
  83.080	     58.33	    22.048
  83.100	    108.33	    30.046
  83.120	     50.00	    20.412
  83.140	     58.33	    22.048
  83.160	    175.00	    38.188
  83.180	    100.00	    28.868
  83.200	     91.67	    27.639
  83.220	     66.67	    23.570
  83.240	     83.33	    26.352
  83.260	     58.33	    22.048
  83.280	     50.00	    20.412
  83.300	     75.00	    25.000
  83.320	     66.67	    23.570
  83.340	    133.33	    33.333
  83.360	    108.33	    30.046
  83.380	     91.67	    27.639
  83.400	     91.67	    27.639
  83.420	     66.67	    23.570
  83.440	     58.33	    22.048
  83.460	     83.33	    26.352
  83.480	     75.00	    25.000
  83.500	     50.00	    20.412
  83.520	     91.67	    27.639
  83.540	     58.33	    22.048
  83.560	    116.67	    31.180
  83.580	    108.33	    30.046
  83.600	     50.00	    20.412
  83.620	     83.33	    26.352
  83.640	     83.33	    26.352
  83.660	    141.67	    34.359
  83.680	    108.33	    30.046
  83.700	     50.00	    20.412
  83.720	    116.67	    31.180
  83.740	     58.33	    22.048
  83.760	     58.33	    22.048
  83.780	     50.00	    20.412
  83.800	     66.67	    23.570
  83.820	     91.67	    27.639
  83.840	     83.33	    26.352
  83.860	     83.33	    26.352
  83.880	     91.67	    27.639
  83.900	     66.67	    23.570
  83.920	     83.33	    26.352
  83.940	     58.33	    22.048
  83.960	     66.67	    23.570
  83.980	     75.00	    25.000
  84.000	     66.67	    23.570
  84.020	     58.33	    22.048
  84.040	    100.00	    28.868
  84.060	     66.67	    23.570
  84.080	     58.33	    22.048
  84.100	     75.00	    25.000
  84.120	     58.33	    22.048
  84.140	     66.67	    23.570
  84.160	     50.00	    20.412
  84.180	     50.00	    20.412
  84.200	     75.00	    25.000
  84.220	    108.33	    30.046
  84.240	     83.33	    26.352
  84.260	     50.00	    20.412
  84.280	     75.00	    25.000
  84.300	    116.67	    31.180
  84.320	     91.67	    27.639
  84.340	     58.33	    22.048
  84.360	    133.33	    33.333
  84.380	     83.33	    26.352
  84.400	     75.00	    25.000
  84.420	     50.00	    20.412
  84.440	     58.33	    22.048
  84.460	     75.00	    25.000
  84.480	     75.00	    25.000
  84.500	     66.67	    23.570
  84.520	     50.00	    20.412
  84.540	     58.33	    22.048
  84.560	     75.00	    25.000
  84.580	    125.00	    32.275
  84.600	     58.33	    22.048
  84.620	     58.33	    22.048
  84.640	     75.00	    25.000
  84.660	    108.33	    30.046
  84.680	     58.33	    22.048
  84.700	     75.00	    25.000
  84.720	     75.00	    25.000
  84.740	     33.33	    16.667
  84.760	     91.67	    27.639
  84.780	     50.00	    20.412
  84.800	     58.33	    22.048
  84.820	     91.67	    27.639
  84.840	     75.00	    25.000
  84.860	     75.00	    25.000
  84.880	     91.67	    27.639
  84.900	    116.67	    31.180
  84.920	     58.33	    22.048
  84.940	    100.00	    28.868
  84.960	    100.00	    28.868
  84.980	     66.67	    23.570
  85.000	     75.00	    25.000
  85.020	     83.33	    26.352
  85.040	    116.67	    31.180
  85.060	     66.67	    23.570
  85.080	     50.00	    20.412
  85.100	     83.33	    26.352
  85.120	     50.00	    20.412
  85.140	    108.33	    30.046
  85.160	     41.67	    18.634
  85.180	     50.00	    20.412
  85.200	     50.00	    20.412
  85.220	     25.00	    14.434
  85.240	     91.67	    27.639
  85.260	    100.00	    28.868
  85.280	     66.67	    23.570
  85.300	     83.33	    26.352
  85.320	     75.00	    25.000
  85.340	     41.67	    18.634
  85.360	     75.00	    25.000
  85.380	     91.67	    27.639
  85.400	    116.67	    31.180
  85.420	     16.67	    11.785
  85.440	     33.33	    16.667
  85.460	     58.33	    22.048
  85.480	     41.67	    18.634
  85.500	     50.00	    20.412
  85.520	     91.67	    27.639
  85.540	     91.67	    27.639
  85.560	     58.33	    22.048
  85.580	    100.00	    28.868
  85.600	    116.67	    31.180
  85.620	     83.33	    26.352
  85.640	     66.67	    23.570
  85.660	     75.00	    25.000
  85.680	     75.00	    25.000
  85.700	     83.33	    26.352
  85.720	     91.67	    27.639
  85.740	     33.33	    16.667
  85.760	    116.67	    31.180
  85.780	    116.67	    31.180
  85.800	    125.00	    32.275
  85.820	    100.00	    28.868
  85.840	     66.67	    23.570
  85.860	     50.00	    20.412
  85.880	    158.33	    36.324
  85.900	     50.00	    20.412
  85.920	     33.33	    16.667
  85.940	     58.33	    22.048
  85.960	    141.67	    34.359
  85.980	    100.00	    28.868
  86.000	    108.33	    30.046
  86.020	    158.33	    36.324
  86.040	     50.00	    20.412
  86.060	     75.00	    25.000
  86.080	     66.67	    23.570
  86.100	    100.00	    28.868
  86.120	     83.33	    26.352
  86.140	     75.00	    25.000
  86.160	    108.33	    30.046
  86.180	     83.33	    26.352
  86.200	     83.33	    26.352
  86.220	     83.33	    26.352
  86.240	    133.33	    33.333
  86.260	     91.67	    27.639
  86.280	     33.33	    16.667
  86.300	     91.67	    27.639
  86.320	    125.00	    32.275
  86.340	     75.00	    25.000
  86.360	     50.00	    20.412
  86.380	     58.33	    22.048
  86.400	     83.33	    26.352
  86.420	     66.67	    23.570
  86.440	     66.67	    23.570
  86.460	     66.67	    23.570
  86.480	     58.33	    22.048
  86.500	     91.67	    27.639
  86.520	     75.00	    25.000
  86.540	     75.00	    25.000
  86.560	     83.33	    26.352
  86.580	     91.67	    27.639
  86.600	    108.33	    30.046
  86.620	    125.00	    32.275
  86.640	    125.00	    32.275
  86.660	    150.00	    35.355
  86.680	     50.00	    20.412
  86.700	     58.33	    22.048
  86.720	     75.00	    25.000
  86.740	    141.67	    34.359
  86.760	     91.67	    27.639
  86.780	    108.33	    30.046
  86.800	     66.67	    23.570
  86.820	    100.00	    28.868
  86.840	    150.00	    35.355
  86.860	     75.00	    25.000
  86.880	     66.67	    23.570
  86.900	    108.33	    30.046
  86.920	     83.33	    26.352
  86.940	     91.67	    27.639
  86.960	     75.00	    25.000
  86.980	    133.33	    33.333
  87.000	    100.00	    28.868
  87.020	    141.67	    34.359
  87.040	    116.67	    31.180
  87.060	     75.00	    25.000
  87.080	    100.00	    28.868
  87.100	    108.33	    30.046
  87.120	    100.00	    28.868
  87.140	     33.33	    16.667
  87.160	    141.67	    34.359
  87.180	    100.00	    28.868
  87.200	     66.67	    23.570
  87.220	     91.67	    27.639
  87.240	     75.00	    25.000
  87.260	     50.00	    20.412
  87.280	     75.00	    25.000
  87.300	     41.67	    18.634
  87.320	    100.00	    28.868
  87.340	    125.00	    32.275
  87.360	    116.67	    31.180
  87.380	     91.67	    27.639
  87.400	     83.33	    26.352
  87.420	     66.67	    23.570
  87.440	     91.67	    27.639
  87.460	     83.33	    26.352
  87.480	     83.33	    26.352
  87.500	    116.67	    31.180
  87.520	    100.00	    28.868
  87.540	    100.00	    28.868
  87.560	     66.67	    23.570
  87.580	     50.00	    20.412
  87.600	     25.00	    14.434
  87.620	     66.67	    23.570
  87.640	    100.00	    28.868
  87.660	     50.00	    20.412
  87.680	     66.67	    23.570
  87.700	     66.67	    23.570
  87.720	     91.67	    27.639
  87.740	    108.33	    30.046
  87.760	    116.67	    31.180
  87.780	     66.67	    23.570
  87.800	     66.67	    23.570
  87.820	     50.00	    20.412
  87.840	     16.67	    11.785
  87.860	     66.67	    23.570
  87.880	     41.67	    18.634
  87.900	    108.33	    30.046
  87.920	    100.00	    28.868
  87.940	     83.33	    26.352
  87.960	     66.67	    23.570
  87.980	    100.00	    28.868
  88.000	    100.00	    28.868
  88.020	    125.00	    32.275
  88.040	     66.67	    23.570
  88.060	     58.33	    22.048
  88.080	     75.00	    25.000
  88.100	    125.00	    32.275
  88.120	     58.33	    22.048
  88.140	    116.67	    31.180
  88.160	     83.33	    26.352
  88.180	    133.33	    33.333
  88.200	     33.33	    16.667
  88.220	     41.67	    18.634
  88.240	    116.67	    31.180
  88.260	    100.00	    28.868
  88.280	     83.33	    26.352
  88.300	     41.67	    18.634
  88.320	    125.00	    32.275
  88.340	     58.33	    22.048
  88.360	     83.33	    26.352
  88.380	     50.00	    20.412
  88.400	    100.00	    28.868
  88.420	    125.00	    32.275
  88.440	    100.00	    28.868
  88.460	     83.33	    26.352
  88.480	    100.00	    28.868
  88.500	     50.00	    20.412
  88.520	    100.00	    28.868
  88.540	     58.33	    22.048
  88.560	    100.00	    28.868
  88.580	     58.33	    22.048
  88.600	     91.67	    27.639
  88.620	     75.00	    25.000
  88.640	     41.67	    18.634
  88.660	     75.00	    25.000
  88.680	    100.00	    28.868
  88.700	     83.33	    26.352
  88.720	     75.00	    25.000
  88.740	     58.33	    22.048
  88.760	     66.67	    23.570
  88.780	    100.00	    28.868
  88.800	    133.33	    33.333
  88.820	     83.33	    26.352
  88.840	     75.00	    25.000
  88.860	     83.33	    26.352
  88.880	     58.33	    22.048
  88.900	     66.67	    23.570
  88.920	    108.33	    30.046
  88.940	    133.33	    33.333
  88.960	     58.33	    22.048
  88.980	    141.67	    34.359
  89.000	     75.00	    25.000
  89.020	     91.67	    27.639
  89.040	    116.67	    31.180
  89.060	    125.00	    32.275
  89.080	    108.33	    30.046
  89.100	    158.33	    36.324
  89.120	     41.67	    18.634
  89.140	     58.33	    22.048
  89.160	     75.00	    25.000
  89.180	     75.00	    25.000
  89.200	     91.67	    27.639
  89.220	    108.33	    30.046
  89.240	     75.00	    25.000
  89.260	     83.33	    26.352
  89.280	    100.00	    28.868
  89.300	     83.33	    26.352
  89.320	     83.33	    26.352
  89.340	     58.33	    22.048
  89.360	     83.33	    26.352
  89.380	     75.00	    25.000
  89.400	    125.00	    32.275
  89.420	     83.33	    26.352
  89.440	     91.67	    27.639
  89.460	     41.67	    18.634
  89.480	     83.33	    26.352
  89.500	     41.67	    18.634
  89.520	     75.00	    25.000
  89.540	     91.67	    27.639
  89.560	    125.00	    32.275
  89.580	    108.33	    30.046
  89.600	     83.33	    26.352
  89.620	    108.33	    30.046
  89.640	     66.67	    23.570
  89.660	    100.00	    28.868
  89.680	     83.33	    26.352
  89.700	     91.67	    27.639
  89.720	    125.00	    32.275
  89.740	    108.33	    30.046
  89.760	    125.00	    32.275
  89.780	    116.67	    31.180
  89.800	     83.33	    26.352
  89.820	    108.33	    30.046
  89.840	     75.00	    25.000
  89.860	     75.00	    25.000
  89.880	     83.33	    26.352
  89.900	    100.00	    28.868
  89.920	    108.33	    30.046
  89.940	     75.00	    25.000
  89.960	    108.33	    30.046
  89.980	     91.67	    27.639
  90.000	    133.33	    33.333
  90.020	     33.33	    16.667
  90.040	     41.67	    18.634
  90.060	     41.67	    18.634
  90.080	     25.00	    14.434
  90.100	     91.67	    27.639
  90.120	     75.00	    25.000
  90.140	    108.33	    30.046
  90.160	    100.00	    28.868
  90.180	    108.33	    30.046
  90.200	    100.00	    28.868
  90.220	     75.00	    25.000
  90.240	    116.67	    31.180
  90.260	     83.33	    26.352
  90.280	     75.00	    25.000
  90.300	     50.00	    20.412
  90.320	    100.00	    28.868
  90.340	    100.00	    28.868
  90.360	     91.67	    27.639
  90.380	    125.00	    32.275
  90.400	     16.67	    11.785
  90.420	    125.00	    32.275
  90.440	    100.00	    28.868
  90.460	     91.67	    27.639
  90.480	    100.00	    28.868
  90.500	     75.00	    25.000
  90.520	    100.00	    28.868
  90.540	    116.67	    31.180
  90.560	    100.00	    28.868
  90.580	     75.00	    25.000
  90.600	     58.33	    22.048
  90.620	     83.33	    26.352
  90.640	     66.67	    23.570
  90.660	     91.67	    27.639
  90.680	    108.33	    30.046
  90.700	     83.33	    26.352
  90.720	     66.67	    23.570
  90.740	     83.33	    26.352
  90.760	     66.67	    23.570
  90.780	     66.67	    23.570
  90.800	     91.67	    27.639
  90.820	    100.00	    28.868
  90.840	    100.00	    28.868
  90.860	     50.00	    20.412
  90.880	     91.67	    27.639
  90.900	     66.67	    23.570
  90.920	     91.67	    27.639
  90.940	     50.00	    20.412
  90.960	     91.67	    27.639
  90.980	     66.67	    23.570
  91.000	     58.33	    22.048
  91.020	    108.33	    30.046
  91.040	     50.00	    20.412
  91.060	     83.33	    26.352
  91.080	    125.00	    32.275
  91.100	     91.67	    27.639
  91.120	     50.00	    20.412
  91.140	     75.00	    25.000
  91.160	     66.67	    23.570
  91.180	     66.67	    23.570
  91.200	    100.00	    28.868
  91.220	     83.33	    26.352
  91.240	     75.00	    25.000
  91.260	     41.67	    18.634
  91.280	    133.33	    33.333
  91.300	     33.33	    16.667
  91.320	     58.33	    22.048
  91.340	    108.33	    30.046
  91.360	    133.33	    33.333
  91.380	    133.33	    33.333
  91.400	    100.00	    28.868
  91.420	     83.33	    26.352
  91.440	     75.00	    25.000
  91.460	     58.33	    22.048
  91.480	     91.67	    27.639
  91.500	     66.67	    23.570
  91.520	     91.67	    27.639
  91.540	     58.33	    22.048
  91.560	     66.67	    23.570
  91.580	     66.67	    23.570
  91.600	    108.33	    30.046
  91.620	    108.33	    30.046
  91.640	     75.00	    25.000
  91.660	     75.00	    25.000
  91.680	     58.33	    22.048
  91.700	     91.67	    27.639
  91.720	     91.67	    27.639
  91.740	    133.33	    33.333
  91.760	     66.67	    23.570
  91.780	     83.33	    26.352
  91.800	     83.33	    26.352
  91.820	     91.67	    27.639
  91.840	     83.33	    26.352
  91.860	    108.33	    30.046
  91.880	    100.00	    28.868
  91.900	    141.67	    34.359
  91.920	    125.00	    32.275
  91.940	    116.67	    31.180
  91.960	     83.33	    26.352
  91.980	    108.33	    30.046
  92.000	     66.67	    23.570
  92.020	     83.33	    26.352
  92.040	     66.67	    23.570
  92.060	     75.00	    25.000
  92.080	    100.00	    28.868
  92.100	    116.67	    31.180
  92.120	    116.67	    31.180
  92.140	    150.00	    35.355
  92.160	    100.00	    28.868
  92.180	     75.00	    25.000
  92.200	    125.00	    32.275
  92.220	     58.33	    22.048
  92.240	    125.00	    32.275
  92.260	     50.00	    20.412
  92.280	     66.67	    23.570
  92.300	     58.33	    22.048
  92.320	     66.67	    23.570
  92.340	    133.33	    33.333
  92.360	     41.67	    18.634
  92.380	     58.33	    22.048
  92.400	     33.33	    16.667
  92.420	     91.67	    27.639
  92.440	     50.00	    20.412
  92.460	     75.00	    25.000
  92.480	     91.67	    27.639
  92.500	     58.33	    22.048
  92.520	     66.67	    23.570
  92.540	     83.33	    26.352
  92.560	    108.33	    30.046
  92.580	    116.67	    31.180
  92.600	     91.67	    27.639
  92.620	     33.33	    16.667
  92.640	    166.67	    37.268
  92.660	    133.33	    33.333
  92.680	    125.00	    32.275
  92.700	    200.00	    40.825
  92.720	    100.00	    28.868
  92.740	     91.67	    27.639
  92.760	    133.33	    33.333
  92.780	    116.67	    31.180
  92.800	    116.67	    31.180
  92.820	    175.00	    38.188
  92.840	    100.00	    28.868
  92.860	    108.33	    30.046
  92.880	    108.33	    30.046
  92.900	     58.33	    22.048
  92.920	    150.00	    35.355
  92.940	     50.00	    20.412
  92.960	    125.00	    32.275
  92.980	    141.67	    34.359
  93.000	    125.00	    32.275
  93.020	    100.00	    28.868
  93.040	    100.00	    28.868
  93.060	    133.33	    33.333
  93.080	    100.00	    28.868
  93.100	    100.00	    28.868
  93.120	    108.33	    30.046
  93.140	    116.67	    31.180
  93.160	     91.67	    27.639
  93.180	     66.67	    23.570
  93.200	     75.00	    25.000
  93.220	     50.00	    20.412
  93.240	     41.67	    18.634
  93.260	     83.33	    26.352
  93.280	     75.00	    25.000
  93.300	     66.67	    23.570
  93.320	     41.67	    18.634
  93.340	     75.00	    25.000
  93.360	     91.67	    27.639
  93.380	     58.33	    22.048
  93.400	    125.00	    32.275
  93.420	    158.33	    36.324
  93.440	     50.00	    20.412
  93.460	     33.33	    16.667
  93.480	     83.33	    26.352
  93.500	     91.67	    27.639
  93.520	     75.00	    25.000
  93.540	     91.67	    27.639
  93.560	    100.00	    28.868
  93.580	     91.67	    27.639
  93.600	    100.00	    28.868
  93.620	     66.67	    23.570
  93.640	     91.67	    27.639
  93.660	    116.67	    31.180
  93.680	     83.33	    26.352
  93.700	     75.00	    25.000
  93.720	     33.33	    16.667
  93.740	    108.33	    30.046
  93.760	     83.33	    26.352
  93.780	     58.33	    22.048
  93.800	    100.00	    28.868
  93.820	    133.33	    33.333
  93.840	    116.67	    31.180
  93.860	    100.00	    28.868
  93.880	     83.33	    26.352
  93.900	    100.00	    28.868
  93.920	    116.67	    31.180
  93.940	     83.33	    26.352
  93.960	     66.67	    23.570
  93.980	     91.67	    27.639
  94.000	     58.33	    22.048
  94.020	     91.67	    27.639
  94.040	    100.00	    28.868
  94.060	     50.00	    20.412
  94.080	     83.33	    26.352
  94.100	     91.67	    27.639
  94.120	     66.67	    23.570
  94.140	    125.00	    32.275
  94.160	    108.33	    30.046
  94.180	     58.33	    22.048
  94.200	    125.00	    32.275
  94.220	    116.67	    31.180
  94.240	     75.00	    25.000
  94.260	    133.33	    33.333
  94.280	     75.00	    25.000
  94.300	     75.00	    25.000
  94.320	    108.33	    30.046
  94.340	     66.67	    23.570
  94.360	     58.33	    22.048
  94.380	    108.33	    30.046
  94.400	    200.00	    40.825
  94.420	     91.67	    27.639
  94.440	    158.33	    36.324
  94.460	     66.67	    23.570
  94.480	    100.00	    28.868
  94.500	    116.67	    31.180
  94.520	     25.00	    14.434
  94.540	     91.67	    27.639
  94.560	     75.00	    25.000
  94.580	     91.67	    27.639
  94.600	    116.67	    31.180
  94.620	    141.67	    34.359
  94.640	    141.67	    34.359
  94.660	    108.33	    30.046
  94.680	     83.33	    26.352
  94.700	     83.33	    26.352
  94.720	    100.00	    28.868
  94.740	    158.33	    36.324
  94.760	     75.00	    25.000
  94.780	    100.00	    28.868
  94.800	     41.67	    18.634
  94.820	    100.00	    28.868
  94.840	     58.33	    22.048
  94.860	    125.00	    32.275
  94.880	     41.67	    18.634
  94.900	     75.00	    25.000
  94.920	     66.67	    23.570
  94.940	     75.00	    25.000
  94.960	     83.33	    26.352
  94.980	     66.67	    23.570
  95.000	    108.33	    30.046
  95.020	     75.00	    25.000
  95.040	     66.67	    23.570
  95.060	    133.33	    33.333
  95.080	     91.67	    27.639
  95.100	     91.67	    27.639
  95.120	     91.67	    27.639
  95.140	    133.33	    33.333
  95.160	     91.67	    27.639
  95.180	    108.33	    30.046
  95.200	     91.67	    27.639
  95.220	    108.33	    30.046
  95.240	    108.33	    30.046
  95.260	    116.67	    31.180
  95.280	     75.00	    25.000
  95.300	    133.33	    33.333
  95.320	     83.33	    26.352
  95.340	     83.33	    26.352
  95.360	    108.33	    30.046
  95.380	    108.33	    30.046
  95.400	     66.67	    23.570
  95.420	     66.67	    23.570
  95.440	     83.33	    26.352
  95.460	     66.67	    23.570
  95.480	    100.00	    28.868
  95.500	     66.67	    23.570
  95.520	     66.67	    23.570
  95.540	     83.33	    26.352
  95.560	     83.33	    26.352
  95.580	    100.00	    28.868
  95.600	     83.33	    26.352
  95.620	     83.33	    26.352
  95.640	     66.67	    23.570
  95.660	    100.00	    28.868
  95.680	     83.33	    26.352
  95.700	    100.00	    28.868
  95.720	     66.67	    23.570
  95.740	     91.67	    27.639
  95.760	    133.33	    33.333
  95.780	     83.33	    26.352
  95.800	     66.67	    23.570
  95.820	     50.00	    20.412
  95.840	     91.67	    27.639
  95.860	    108.33	    30.046
  95.880	     58.33	    22.048
  95.900	     66.67	    23.570
  95.920	     83.33	    26.352
  95.940	    108.33	    30.046
  95.960	     91.67	    27.639
  95.980	    108.33	    30.046
  96.000	     91.67	    27.639
  96.020	     75.00	    25.000
  96.040	    108.33	    30.046
  96.060	    116.67	    31.180
  96.080	     83.33	    26.352
  96.100	     66.67	    23.570
  96.120	    150.00	    35.355
  96.140	     66.67	    23.570
  96.160	    108.33	    30.046
  96.180	    116.67	    31.180
  96.200	     50.00	    20.412
  96.220	    108.33	    30.046
  96.240	     83.33	    26.352
  96.260	     75.00	    25.000
  96.280	     58.33	    22.048
  96.300	     83.33	    26.352
  96.320	    133.33	    33.333
  96.340	    108.33	    30.046
  96.360	     75.00	    25.000
  96.380	    125.00	    32.275
  96.400	    125.00	    32.275
  96.420	     83.33	    26.352
  96.440	     66.67	    23.570
  96.460	    125.00	    32.275
  96.480	    116.67	    31.180
  96.500	    108.33	    30.046
  96.520	    108.33	    30.046
  96.540	    108.33	    30.046
  96.560	    100.00	    28.868
  96.580	    108.33	    30.046
  96.600	    108.33	    30.046
  96.620	     91.67	    27.639
  96.640	     75.00	    25.000
  96.660	    108.33	    30.046
  96.680	     91.67	    27.639
  96.700	     91.67	    27.639
  96.720	    100.00	    28.868
  96.740	     75.00	    25.000
  96.760	     91.67	    27.639
  96.780	     75.00	    25.000
  96.800	    175.00	    38.188
  96.820	     66.67	    23.570
  96.840	    108.33	    30.046
  96.860	     91.67	    27.639
  96.880	     75.00	    25.000
  96.900	     58.33	    22.048
  96.920	     91.67	    27.639
  96.940	    100.00	    28.868
  96.960	     83.33	    26.352
  96.980	     91.67	    27.639
  97.000	    125.00	    32.275
  97.020	     75.00	    25.000
  97.040	     50.00	    20.412
  97.060	    100.00	    28.868
  97.080	    141.67	    34.359
  97.100	     58.33	    22.048
  97.120	     83.33	    26.352
  97.140	     58.33	    22.048
  97.160	     75.00	    25.000
  97.180	     50.00	    20.412
  97.200	    100.00	    28.868
  97.220	    100.00	    28.868
  97.240	    116.67	    31.180
  97.260	    108.33	    30.046
  97.280	    116.67	    31.180
  97.300	     75.00	    25.000
  97.320	     66.67	    23.570
  97.340	    133.33	    33.333
  97.360	    116.67	    31.180
  97.380	    108.33	    30.046
  97.400	    100.00	    28.868
  97.420	     58.33	    22.048
  97.440	     58.33	    22.048
  97.460	    133.33	    33.333
  97.480	    116.67	    31.180
  97.500	    108.33	    30.046
  97.520	    141.67	    34.359
  97.540	     41.67	    18.634
  97.560	    116.67	    31.180
  97.580	    100.00	    28.868
  97.600	    108.33	    30.046
  97.620	     83.33	    26.352
  97.640	    125.00	    32.275
  97.660	    133.33	    33.333
  97.680	    133.33	    33.333
  97.700	    108.33	    30.046
  97.720	    116.67	    31.180
  97.740	     75.00	    25.000
  97.760	    150.00	    35.355
  97.780	     75.00	    25.000
  97.800	    108.33	    30.046
  97.820	     58.33	    22.048
  97.840	    108.33	    30.046
  97.860	     91.67	    27.639
  97.880	    150.00	    35.355
  97.900	     66.67	    23.570
  97.920	    141.67	    34.359
  97.940	    125.00	    32.275
  97.960	     66.67	    23.570
  97.980	    108.33	    30.046
  98.000	    133.33	    33.333
  98.020	    158.33	    36.324
  98.040	     66.67	    23.570
  98.060	    125.00	    32.275
  98.080	     33.33	    16.667
  98.100	     91.67	    27.639
  98.120	    100.00	    28.868
  98.140	     75.00	    25.000
  98.160	     50.00	    20.412
  98.180	     75.00	    25.000
  98.200	     83.33	    26.352
  98.220	     91.67	    27.639
  98.240	     58.33	    22.048
  98.260	     25.00	    14.434
  98.280	     91.67	    27.639
  98.300	    108.33	    30.046
  98.320	     75.00	    25.000
  98.340	     91.67	    27.639
  98.360	     75.00	    25.000
  98.380	     75.00	    25.000
  98.400	    108.33	    30.046
  98.420	    108.33	    30.046
  98.440	     91.67	    27.639
  98.460	    108.33	    30.046
  98.480	     41.67	    18.634
  98.500	     75.00	    25.000
  98.520	     83.33	    26.352
  98.540	    100.00	    28.868
  98.560	     33.33	    16.667
  98.580	     91.67	    27.639
  98.600	    125.00	    32.275
  98.620	    116.67	    31.180
  98.640	    108.33	    30.046
  98.660	     66.67	    23.570
  98.680	     50.00	    20.412
  98.700	    116.67	    31.180
  98.720	    116.67	    31.180
  98.740	    116.67	    31.180
  98.760	    158.33	    36.324
  98.780	    125.00	    32.275
  98.800	    125.00	    32.275
  98.820	     91.67	    27.639
  98.840	     75.00	    25.000
  98.860	    133.33	    33.333
  98.880	    125.00	    32.275
  98.900	     58.33	    22.048
  98.920	     75.00	    25.000
  98.940	     75.00	    25.000
  98.960	     75.00	    25.000
  98.980	     58.33	    22.048
  99.000	     58.33	    22.048
  99.020	    116.67	    31.180
  99.040	    133.33	    33.333
  99.060	    100.00	    28.868
  99.080	     75.00	    25.000
  99.100	     75.00	    25.000
  99.120	     50.00	    20.412
  99.140	     83.33	    26.352
  99.160	     25.00	    14.434
  99.180	     91.67	    27.639
  99.200	    141.67	    34.359
  99.220	     58.33	    22.048
  99.240	     91.67	    27.639
  99.260	     83.33	    26.352
  99.280	    108.33	    30.046
  99.300	     75.00	    25.000
  99.320	    125.00	    32.275
  99.340	     83.33	    26.352
  99.360	     91.67	    27.639
  99.380	    100.00	    28.868
  99.400	     66.67	    23.570
  99.420	     83.33	    26.352
  99.440	    116.67	    31.180
  99.460	    100.00	    28.868
  99.480	    116.67	    31.180
  99.500	    108.33	    30.046
  99.520	    116.67	    31.180
  99.540	     58.33	    22.048
  99.560	     91.67	    27.639
  99.580	     66.67	    23.570
  99.600	     66.67	    23.570
  99.620	     50.00	    20.412
  99.640	    108.33	    30.046
  99.660	     33.33	    16.667
  99.680	    133.33	    33.333
  99.700	     66.67	    23.570
  99.720	     66.67	    23.570
  99.740	     83.33	    26.352
  99.760	     91.67	    27.639
  99.780	     58.33	    22.048
  99.800	     75.00	    25.000
  99.820	    116.67	    31.180
  99.840	     83.33	    26.352
  99.860	     75.00	    25.000
  99.880	    125.00	    32.275
  99.900	    141.67	    34.359
  99.920	     75.00	    25.000
  99.940	    116.67	    31.180
  99.960	     50.00	    20.412
  99.980	    158.33	    36.324
 100.000	    116.67	    31.180
